4015,0.250940448,0.264858985,0.26940245,0.275275811,0.272929053,0.205695559,0.325481999,0.38531257,0.340384097,0.332606591,0.258437439,0.245321226,0.227898352,0.279098531,0.316016875,0.240355636,0.155239836,0.347331565,0.279554305,0.373572948,0.339203587,0.334904588,0.353048395,0.359205451,0.31943104,0.245671159,0.239351503,0.319261848,0.066589503,0.092032227,0.204705406,0.478344596,0.754211408,0.017303795,0.138658171,0.261213566,0.080600682,0.218859612,0.198121959,0.225458675,0.253420796,0.271852464,0.3257596,0.391432618,0.379674218,0.330241076,0.291551186,0.318851636,0.292680228,0.306363277,0.257059393,0.263676009,0.274831428,0.26557749,0.353734775,0.355918251,0.336716157,0.286481251,0.382148272,0.350796971,0.332036984,0.355606631,0.3229463,0.363746831,0.263998715,0.342159039,0.327186182,0.193452008,0.13568281,0.250056237,0.034872826,0.180160625,0.365993536,0.384294577,0.147683301,0.248081522,0.150171942,0.104472342,0.126964525,0.141481556,0.225012586,0.210626748,0.189190568,0.240696248,0.153837118,0.204135991,0.268475801,0.18589911,0.192337267,0.299128582,0.348803733,0.354722199,0.270808626,0.298829196,0.307734211,0.299553456,0.297636754,0.259453182,0.249343224,0.262079147,0.262793259,0.25625777,0.288935708,0.275518343,0.287988829,0.373004882,0.183999781,0.254168163,0.286412167,0.491934229,0.308592504,0.331854042,0.274246247,0.119562908,0.18742108,0.31715253,0.187866645,0.300464047,0.298041545,0.287396573,0.327321956,0.325236042,0.332085121,0.370648777,0.346620762,0.350510889,0.343638297,0.327175746,0.372535757,0.175560828,0.265558855,0.236542746,0.28666542,0.321250211,0.375117746,0.302831449,0.422067721,0.574128549,0.314684513,0.220259875,0.279014456,0.294319432,0.277670632,0.222560411,0.251677668,0.489621016,0.388354464,0.337480887,0.250478376,0.290870331,0.272696864,0.316664601,0.161355699,0.191707195,0.310411978,0.2942509,0.281839242,0.302826681,0.26964451,0.26173984,0.248807091,0.298609126,0.26510504,0.222121996,0.269859358,0.270768615,0.212944681,0.242892463,0.348316434,0.398088481,0.350437729,0.374793578,0.424535598,0.359828049,0.303494661,0.241741453,0.298161937,0.254460114,0.249008496,0.245941048,30.36574753,27.42481354,21.81639298,36.3042916,21.6554317,24.30467527,22.73478859,27.43657636,27.24064507,27.83699669,34.39673399,27.19557815,20.49780114,43.0769254,43.6738208,38.88644935,75.02878032,37.88943034,38.21085064,35.82863406,38.40049955,18.87631319,29.48172016,24.73905744,29.58925381,35.58153187,60.10502412,37.74683,68.69951317,105.375601,85.79496746,70.17237028,69.24225334,71.95407883,51.62834424,25.67611204,49.47465384,53.52232471,34.73190724,51.52070381,29.84798466,38.79241493,33.51428971,27.26226431,23.51643073,19.72812186,28.23984962,25.85368511,21.17543885,23.41368762,20.28252442,19.12303642,20.97158402,21.37362943,20.40386749,20.39065569,27.91107279,50.79106388,20.01357219,20.34252821,19.4454984,18.67578907,20.12809482,27.55839474,50.1436955,23.69775823,17.5099922,22.6049843,37.28571592,29.17642998,95.52849343,40.15027919,38.45535398,41.57558123,78.92964194,35.9544613,70.17295429,63.30686719,37.97141523,63.62836133,53.35775903,34.09341364,38.34246685,32.15227836,74.03229632,58.95301923,25.7800548,28.39580184,32.67991202,19.84108455,22.19385593,22.61844528,25.57493568,18.40091347,18.96232761,20.19275624,17.54389343,17.51482796,16.7388712,17.31795814,17.149991,14.9099909,15.77216363,17.69573197,16.76401316,17.93722827,34.91202472,31.75438347,42.42596258,27.49192823,16.93570609,17.13481582,25.43041006,80.17493113,49.18575288,23.13926155,60.49640637,33.30919629,26.84431247,29.85652314,17.51338773,25.30499177,23.66436852,25.56597044,43.34944462,17.91807395,20.0427048,17.89029151,27.36574339,46.61115913,63.85319749,33.6136134,25.4850385,22.49415986,34.7604151,34.44098257,37.71276252,24.14780766,35.45441013,49.8071453,38.45988632,17.57087309,34.81305384,44.79278055,36.06867021,25.83301625,17.02347475,16.89701211,27.95330846,23.02573504,38.70066234,24.33124387,56.32368512,41.49138061,21.95130625,19.84671196,21.96167309,36.90786473,26.74835576,19.46454055,15.1893663,24.35221834,24.99111705,39.59935703,16.52767534,21.29148299,27.72681055,14.89161109,20.99633742,18.46268226,16.95620663,17.27378158,17.8473638,15.44597622,17.1207279,37.68900417,18.30482575,23.02141305,15.99644692,15.47898916
4043,0.189521146,0.179006123,0.171436239,0.191084121,0.183918859,0.185155018,0.184570622,0.18623848,0.190765638,0.192757339,0.186467607,0.183757764,0.183093994,0.192148172,0.187010019,0.179210771,0.19046755,0.19674774,0.182594797,0.197803354,0.200255206,0.203868132,0.148891642,0.192312918,0.174607578,0.106833872,0.19847468,0.212817817,0.24091398,0.178790045,0.191288484,0.201708133,0.18984248,0.197123779,0.190068838,0.177695025,0.00219778,0.185974327,0.186569808,0.182248922,0.190167858,0.185813723,0.189688726,0.185912076,0.188526436,0.179309214,0.181173741,0.197377366,0.207520339,0.185194563,0.191982303,0.190237775,0.183780002,0.188004343,0.1956741,0.193513578,0.205215225,0.198612144,0.194140466,0.189979511,0.205516286,0.214209866,0.184675885,0.185635084,0.195896533,0.193580471,0.184178304,0.181880177,0.18791568,0.194618771,0.210534319,0.189808842,0.205821694,0.210989819,0.182958155,0.173949553,0.175017167,0.189120461,0.192734587,0.187382535,0.185858785,0.177944498,0.19775465,0.19114976,0.184702812,0.187257888,0.191878441,0.187030007,0.187905436,0.200957437,0.183400347,0.191748737,0.225714324,0.192644957,0.230407506,0.201001061,0.205078648,0.197134139,0.219349191,0.208682735,0.21512543,0.204161503,0.210426239,0.208600394,0.205958052,0.213609524,0.249485628,0.209192851,0.247792709,0.231887928,0.221486878,0.074696646,0.21670017,0.292358771,0.289188089,0.311840776,0.251784879,0.298712992,0.271594817,0.31009943,0.330249502,0.325449933,0.376035122,0.302490916,0.337365165,0.317090634,0.291633951,0.299209163,0.293386485,0.320172904,0.314056611,0.284411101,0.160647506,0.089536962,0.099123659,0.212330395,0.218193179,0.226398516,0.235720263,0.248530136,0.238569197,0.192654799,0.221887227,0.195724295,0.187272557,0.214911446,0.209347693,0.202758837,0.239095845,0.214025875,0.197051275,0.176915019,0.182814846,0.174363022,0.182821031,0.193192016,0.188309002,0.184664837,0.181273076,0.199716577,0.17940775,0.190564945,0.186465514,0.182439119,0.175306664,0.170205876,0.188006497,0.185523372,0.186290917,0.196824519,0.182147874,0.179953898,0.18651158,0.182429825,0.210582211,0.198172463,0.194413073,0.193654116,0.194039044,0.181191026,15.03818892,16.38769385,16.70836395,17.82241275,15.60510241,18.20887379,16.0906463,15.92436687,19.92049626,20.50145428,17.6466769,17.35557833,15.78954304,20.2980396,16.77660314,15.43565314,18.31091114,18.77115897,17.5083267,17.34379278,14.29006813,15.34784574,37.49486913,18.89298004,30.84281241,47.99177113,17.16324364,17.19851157,19.38188486,17.13137873,16.122716,17.05469984,17.22039208,18.60917862,18.13602873,19.87000981,89.77886644,16.40572841,16.45946946,17.9258901,18.19221963,18.8291115,15.45468031,18.73330684,17.06721982,20.03537737,17.30412124,16.71833311,19.51099394,18.16950281,16.84405019,17.08045913,15.78758267,15.69769299,14.92403644,17.49760537,17.57959749,18.05554883,16.05006723,19.69982502,17.65834129,19.21164819,16.62069393,17.94053675,16.67401723,22.39033068,17.34246749,20.04255036,15.49349995,18.70952785,19.77265025,16.1835102,22.21737464,18.31164082,16.83196028,18.82157685,17.26663801,22.32799289,18.51724535,18.3244682,15.56653988,15.89609059,18.3718221,17.17858671,14.65787274,15.22155527,14.88231001,17.35838927,18.5950176,15.95099555,16.29446269,19.65789392,17.47090768,14.54163285,14.04014215,16.01949279,16.36522497,18.35918852,15.62102855,14.48280436,18.59161794,19.6627106,17.20100344,15.96478368,16.0644409,16.70038034,17.48550589,24.16085327,16.0039112,17.98666977,17.86298992,58.16244366,61.72187239,25.39389983,32.94491995,21.52820928,22.38374651,18.79126024,24.62120511,20.99717668,19.25896722,19.90445995,21.64997723,19.62860253,24.7832566,27.55125099,22.09559716,19.67223432,22.39571691,22.24368528,23.55023873,25.98188065,72.82296049,45.58895521,71.62455581,18.00919393,24.25454732,19.58031839,16.9533153,20.30054622,21.56382515,21.52621188,17.66516176,17.05538604,18.72179559,20.03271074,16.62376997,16.4030154,17.04850847,18.34484394,17.44800462,16.80049828,16.6987754,15.90363041,17.53769919,17.6160575,19.05761205,19.25694785,18.72681758,16.07100596,17.26407401,18.15013587,17.26613403,18.02474672,19.22695752,17.42866407,17.26325592,15.22286242,17.45243837,17.88567655,15.54546749,17.40587297,18.73934356,15.14589065,15.64003642,14.1145482,14.67618508,16.7675675,17.00011168,16.40661359
4048,0.265226879,0.268721431,0.271736869,0.271119186,0.293345481,0.308789165,0.300943633,0.371445711,0.427106886,0.352183249,0.411793761,0.672116738,0.729621598,0.774900787,0.515147091,0.31381654,0.314301042,0.293060384,0.289490261,0.30007831,0.313857872,0.342770658,0.322632671,0.319699343,0.383353218,0.425844503,0.508127999,0.480653318,0.15682998,0.290107468,0.290215716,0.273004286,0.277232867,0.253502758,0.28098061,0.273591243,0.383138286,0.318387031,0.300609489,0.273523092,0.261890231,0.239253428,0.258211793,0.286380393,0.280798428,0.274784505,0.282353366,0.265397709,0.287142106,0.256283525,0.287012795,0.270114198,0.289963107,0.287559776,0.307696428,0.289334837,0.28677907,0.266405797,0.297206943,0.272456994,0.273364661,0.324957468,0.507920429,0.355735399,0.338064151,0.265278681,0.215933407,0.226692351,0.250586776,0.18547482,0.282419527,0.234733066,0.289310437,0.39304315,0.480495574,0.421951611,0.206253057,0.224965895,0.21188857,0.273659467,0.2628347,0.263093559,0.274579205,0.248181602,0.250915093,0.251281301,0.251419468,0.221794649,0.248851523,0.248773372,0.245859678,0.250348237,0.255357556,0.143339915,0.175750827,0.207368857,0.19957194,0.244750734,0.215882571,0.246412019,0.20692317,0.233795316,0.430395039,0.591344646,0.312199695,0.536252863,0.439757456,0.21278188,0.278326716,0.291105423,0.279672205,0.304753238,0.248298287,0.284747623,0.29405305,0.263285654,0.283616219,0.282852572,0.294270638,0.30097416,0.295209765,0.294078834,0.279972512,0.306460614,0.294711041,0.301650392,0.285428325,0.27866155,0.297516464,0.279062578,0.286373686,0.266014417,0.271875905,0.284479146,0.249999861,0.286083617,0.27874044,0.269653289,0.233543921,0.242580948,0.279821314,0.266863135,0.279291462,0.266907951,0.256428169,0.274743586,0.290794789,0.274695507,0.284319426,0.27377142,0.26987648,0.258032588,0.27111667,0.284344665,0.236423147,0.237836433,0.237597143,0.218057101,0.228433348,0.254143084,0.225556223,0.194025399,0.247924576,0.280333571,0.272031636,0.247611869,0.266391025,0.240468335,0.238796645,0.223964089,0.210573238,0.235300048,0.246227925,0.226780372,0.219943438,0.233163611,0.22919868,0.206964715,0.236418918,0.211285117,40.11264534,29.94222011,26.48920403,28.94746143,22.38883819,25.12615665,39.50750158,35.38173295,23.89510597,23.49517483,24.84649177,34.14957403,35.05169161,34.35681902,32.64231066,28.65027414,37.44887179,34.85371606,29.81081565,37.37762767,31.30396791,38.66450247,58.05843144,38.99085647,33.04860502,35.72292236,28.37690034,27.64118148,39.94064879,35.05200193,24.45014719,23.23565166,26.99815101,33.35395152,34.3678666,35.16083827,25.65696258,19.45044718,19.13891198,24.49099525,29.96440145,32.84456066,27.78278902,32.82160614,33.56041256,30.35349934,28.47939985,26.51919858,25.65713163,28.68602995,31.29603017,29.17405104,30.35715052,29.53651387,37.75089915,33.74710378,36.06058165,34.97367551,21.85162635,26.14214874,31.86596235,29.56043854,35.502269,41.35763878,33.50542983,30.13967383,29.88413507,27.33353616,22.48463403,29.67685493,28.3625479,33.96290517,32.80593557,34.82817984,30.00285615,25.06822842,40.22896371,28.88222348,20.34634471,31.38068967,35.08728595,34.07117361,38.41489319,47.77684943,34.3981146,24.96113115,39.74289446,30.77241987,34.44075814,22.4926751,25.79741423,16.25015449,23.24866413,37.30698275,47.07050154,24.57412098,32.04249331,42.74334438,26.11925466,23.90860483,23.71572575,25.78114225,35.77037671,33.4867421,33.40803525,32.40888629,23.55257477,29.10073474,27.72408972,35.56327738,24.1736622,22.6647876,25.59673514,26.30069433,28.73622683,31.602876,35.26846137,38.19849057,38.66322372,30.93844028,37.06429702,25.35312184,28.05269555,29.4523804,27.15732442,35.64084824,32.94889414,32.28835033,35.91730369,38.76959086,34.32430128,41.68670648,33.54159654,28.72092869,29.42814919,39.27520156,23.93810572,26.20442951,20.59601343,25.35424475,32.01709584,27.9243044,25.27470922,38.05043071,47.10553317,35.05867527,39.15663107,29.40836423,39.63520204,27.46361682,40.99664567,33.18569352,21.46967635,28.54390235,27.17399613,30.1144283,29.8313688,25.7177017,20.56221885,25.11366489,19.91529105,28.59080393,29.30570746,25.96851457,23.41387185,37.6546155,29.35814089,31.17201088,30.01154272,28.59837521,30.26658655,31.26596846,27.58982422,30.02426092,21.08554798,24.95861268,26.47344496,19.73056953,22.28149804,20.11395967
4126,0.172711884,0.178952708,0.357036851,0.323216546,0.334507413,0.414296193,0.305575209,0.377385718,0.357374831,0.399033498,0.359988991,0.324634552,0.34466771,0.44086326,0.417635229,0.406660859,0.431302846,0.424580485,0.414215588,0.397805294,0.401959034,0.418808971,0.435343882,0.417372191,0.385514945,0.478482435,0.373374953,0.43858564,0.412872638,0.454592891,0.432946563,0.412612689,0.395353463,0.408096437,0.236621855,0.309858812,0.415456375,0.454400704,0.383188189,0.396483031,0.438084336,0.419894123,0.454754341,0.42068041,0.417496399,0.427509271,0.446866442,0.429636217,0.395251847,0.423160186,0.452105481,0.371979777,0.321979769,0.384289637,0.41664145,0.353975648,0.411186327,0.418611694,0.369954851,0.339884589,0.34026753,0.349815189,0.313957272,0.261889998,0.317963893,0.377314424,0.386770928,0.359366048,0.360776793,0.493724058,0.406304771,0.415154239,0.47433196,0.389394672,0.474723549,0.404303072,0.246889288,0.313570176,0.314096341,0.354258229,0.343760593,0.36413607,0.21563003,0.24497831,0.35464228,0.311061316,0.219465365,0.212598245,0.16810554,0.284838451,0.229775478,0.319551748,0.330299165,0.173744155,0.253411562,0.18625915,0.240526788,0.238980765,0.262858394,0.337747815,0.202139043,0.316548479,0.388954237,0.418710786,0.457758635,0.512531905,0.467884155,0.49180147,0.436186438,0.456566327,0.33008251,0.340593381,0.377308994,0.323310598,0.434016078,0.437207878,0.409054919,0.471016502,0.415592056,0.385310969,0.386937557,0.368165541,0.451968945,0.391326559,0.368339152,0.351308916,0.363938969,0.313575589,0.329877987,0.239054217,0.260893538,0.25860344,0.253190446,0.264997021,0.221697564,0.173729505,0.205851779,0.27360225,0.27723662,0.200701132,0.199090754,0.32318852,0.311033308,0.214170089,0.247589412,0.224856151,0.195060431,0.199730995,0.261534772,0.15036145,0.211435934,0.240121128,0.326303864,0.309095779,0.278305289,0.328486823,0.258359326,0.231703042,0.319047302,0.439894024,0.346777748,0.256487405,0.323350249,0.432133759,0.43889903,0.205674624,0.387526021,0.334007884,0.329885005,0.389015262,0.345732295,0.289505136,0.33180112,0.449426309,0.299481426,0.330540699,0.211672526,0.344175425,0.323933831,0.357455014,25.26500477,29.06612546,17.02331723,19.73231854,31.08473301,19.29585939,33.83440659,19.46017254,18.43421979,20.84636089,17.43442843,24.14977603,17.43881151,16.42262042,21.59989815,16.30895044,17.83202063,18.4119624,16.92260008,17.55526055,17.03442037,17.06745279,17.90483143,21.97694672,23.42412564,18.14017717,27.87364579,19.76120185,16.08244852,21.246859,15.92613975,18.89506164,17.42816364,18.49614066,35.97054841,50.04505599,16.58732833,16.85778005,18.12239672,21.66239191,15.95040696,15.97220255,17.35184519,17.1291648,17.2817744,18.07324569,17.65620727,23.25069183,26.90007343,15.78326616,16.23102996,23.44618295,26.07103061,17.68748336,19.94856826,29.39700255,20.4363028,17.08819064,16.56291865,18.34266886,24.97769337,22.9490471,18.74327419,17.00895444,27.82436186,26.00902316,21.07384406,19.5003236,18.59126802,26.72320268,20.93574102,20.71559914,17.79862891,38.03516748,18.32053049,20.78470257,28.34433196,38.8150759,28.9916207,33.62775228,30.99348209,17.6854768,39.589654,30.78784305,19.93971217,19.77837414,42.79022558,29.41751042,54.02194301,19.73758867,21.54155926,32.94962078,20.24226443,24.70875682,23.93804265,31.96593998,26.900568,20.59468123,23.28156038,24.49865387,40.93256845,18.10437251,20.23864895,19.48876138,23.54816331,21.23953605,18.5161613,19.49085698,20.94258645,25.46556068,27.37164425,24.02101734,21.93078968,29.92208816,33.17207048,19.69599592,20.17827564,19.70523178,19.39014966,19.7197142,18.81927921,24.93912491,23.81178663,23.92419765,22.98173494,16.24088492,18.43408776,19.41804463,19.77789053,26.06025116,25.29504356,28.01668145,23.34843651,27.26662034,37.05787248,41.81403276,43.49471675,34.37598555,21.55315929,20.32380017,17.02564867,21.69596222,26.16098451,63.97615469,40.42270849,24.90658141,47.99640883,25.19952501,37.58863286,54.84588773,21.15911536,26.13303283,20.83897891,19.55573072,24.19027053,24.24218647,21.832986,29.39168887,35.13873801,21.70012829,21.57937582,25.49285387,23.90351448,17.04460062,17.36525535,53.0655601,30.26987001,20.97975218,27.14669091,17.320988,26.06703826,24.87263507,30.54445689,18.24073615,22.98284564,27.85782536,21.07211081,18.00559773,24.40615072,17.39331522
4746,0.265553309,0.325403862,0.288692297,0.312010006,0.30760845,0.303460443,0.305068306,0.202690974,0.338308622,0.27827762,0.268254149,0.320472978,0.293096888,0.330253844,0.294603458,0.27924798,0.310253454,0.350683066,0.321733326,0.285784818,0.557597853,0.343594172,0.366348787,0.425238317,0.365226489,0.293912525,0.370208082,0.398117016,0.348161677,0.319900133,0.368255776,0.132158499,0.165641092,0.45621403,0.463329882,0.437972934,0.265692562,0.344069784,0.227926929,0.296724218,0.331186139,0.316372719,0.305405612,0.295741482,0.315348807,0.35301663,0.415560387,0.266986713,0.348085841,0.362969507,0.421596154,0.315350083,0.352479302,0.262302986,0.285166415,0.255087726,0.329512838,0.294627718,0.426748669,0.373485541,0.299221231,0.265667244,0.266534036,0.250256272,0.27316436,0.263069296,0.244622833,0.276170894,0.265621123,0.307352364,0.41741643,0.374733082,0.318588823,0.308757462,0.326862924,0.313258732,0.305517814,0.031519468,0.075375225,0.266102565,0.219326561,0.282849225,0.25388592,0.291672231,0.30357804,0.289847229,0.287488584,0.377468284,0.328111053,0.304398109,0.299079412,0.275164323,0.319334389,0.297970233,0.318554553,0.411829754,0.28850769,0.186819468,0.247663632,0.263176726,0.272097217,0.295003699,0.274669137,0.325828179,0.296475121,0.235474213,0.265049516,0.288364766,0.292113543,0.284462766,0.301347817,0.288048635,0.222875449,0.278353416,0.252058183,0.2993561,0.274634498,0.294866559,0.32634082,0.210230471,0.27194165,0.282196109,0.269663362,0.286255832,0.216722984,0.299332834,0.313906876,0.329622748,0.376909926,0.290402625,0.320878032,0.326632908,0.333832552,0.322378961,0.345528501,0.336222105,0.333878448,0.316914623,0.294431669,0.256760187,0.210613153,0.201455444,0.232310235,0.26944134,0.280422772,0.274533399,0.25110867,0.24658739,0.274256168,0.25865612,0.306981131,0.267769745,0.226486697,0.208305398,0.280972044,0.299934057,0.259566114,0.266581476,0.284336575,0.19938163,0.360016473,0.350390671,0.369034986,0.535041684,0.385859203,0.386647791,0.310313661,0.316359213,0.292151515,0.344713212,0.315368664,0.356402879,0.347846921,0.362442638,0.314949539,0.312830429,0.3452464,0.357027207,0.377240973,0.388402674,21.20938007,20.45896414,22.87593954,26.63728299,19.84431727,15.12676431,19.40312854,28.47768717,18.24657104,17.28554895,18.22195483,26.33264283,20.60555789,22.93534515,24.01517548,25.44083477,31.54184164,26.37617644,18.98002948,22.31585875,22.94543783,26.7831207,21.37228515,28.37354945,17.05505147,18.44361157,18.29899136,25.13886867,22.29707156,21.07872346,15.83288274,69.53117634,44.33047956,23.9807057,22.38798586,23.74366797,37.98421486,15.20724502,27.74244564,22.88338232,17.99084201,22.20804077,24.53446475,21.4300995,16.28350986,17.2483826,19.46542693,18.14239015,18.8203572,18.5517541,23.8557851,21.06050167,31.61864419,29.456515,18.89164974,18.22630829,16.79909874,14.82090689,19.48289756,31.55008808,19.33957723,16.89055435,17.88326031,16.78373576,18.33277623,32.85324449,29.36717626,24.95548867,23.76189299,19.77988194,30.3460411,19.42793983,16.33808544,18.8395308,16.11587641,16.63350358,16.91007183,71.85093918,124.3995737,35.73487373,30.88428406,19.24849556,34.73852544,17.81566961,18.0956501,17.02449464,17.42969561,16.87792235,27.74170155,17.78780973,30.98685067,22.95788611,16.89097365,21.83352668,20.17246745,19.79865353,17.94082178,35.10432631,36.09364127,26.13498067,19.51985926,18.9235004,18.83095617,29.44830434,26.36382931,17.5419578,14.50761455,18.8522138,16.94385709,16.73248448,16.85590234,18.58607133,28.57142166,26.21451898,38.77700596,16.36375888,21.67327566,18.44117951,23.50077907,29.72832563,21.05417824,19.95108016,17.30967287,16.96358294,24.66788085,29.62774364,18.83403744,19.27149524,21.15774638,39.96353092,27.5843718,18.74537423,16.03554052,27.23783003,16.98786378,15.97287858,20.04987765,25.39109486,15.63657558,24.02891239,16.16134946,16.89945291,17.7765447,15.97565767,16.006099,16.70135422,17.13057675,17.06810454,16.08743153,15.50307935,17.84559703,19.33312213,15.90461554,17.65379245,35.49043622,25.7145062,20.84981426,31.7154867,18.87966983,39.08183817,29.97006092,20.9817186,18.30422698,20.06961894,21.55939395,22.49784035,24.34507194,22.05834367,15.52540011,17.566641,18.63819214,18.92272063,15.84908311,17.27067441,16.84548361,15.79574084,16.90535934,15.64733934,17.19296635,17.82841758
4908,0.133530209,0.140916554,0.160636555,0.127724101,0.114166669,0.133461269,0.130382832,0.12396384,0.116857237,0.130751742,0.138082915,0.14435082,0.130739519,0.121420025,0.121470621,0.225591929,0.134213538,0.133002253,0.128652352,0.144240384,0.148047157,0.131575465,0.144804467,0.13779687,0.147241411,0.140778388,0.139180634,0.142667565,0.142025758,0.145423734,0.136417936,0.143590955,0.146157787,0.141390209,0.139977081,0.143053227,0.152986396,0.148087642,0.146313439,0.145139657,0.160262843,0.156528267,0.157184272,0.148106192,0.186085139,0.158671186,0.172098771,0.186024589,0.14762679,0.178910068,0.178540012,0.213606608,0.169064689,0.138702494,0.127091906,0.131908767,0.138027455,0.121666042,0.138411031,0.130062088,0.148727003,0.136974179,0.181581922,0.206971306,0.139143182,0.123945074,0.139730614,0.119876624,0.139768993,0.14038695,0.156756516,0.173749106,0.22028563,0.203652341,0.168501327,0.11798911,0.125619487,0.125194151,0.132668165,0.163189814,0.127825171,0.148791114,0.152342694,0.135190334,0.157732165,0.221811645,0.214506937,0.141169586,0.129617705,0.115545342,0.158897357,0.167092882,0.251098777,0.274620685,0.162207593,0.10279073,0.142880981,0.140064288,0.155881226,0.206657943,0.196931814,0.157863464,0.164797357,0.153010306,0.152990546,0.170689775,0.123153832,0.177794113,0.204484899,0.204657234,0.192346234,0.153205742,0.166794401,0.182247282,0.197462135,0.206171188,0.222419028,0.146504985,0.154880159,0.143659238,0.141851889,0.194336421,0.361033315,0.161155466,0.098010504,0.142446006,0.131913912,0.133924676,0.169715369,0.097345343,0.092881184,0.08744497,0.099740795,0.103230826,0.101516821,0.115002949,0.105565294,0.092184057,0.090395628,0.116519126,0.095354626,0.093963939,0.101524291,0.090637432,0.086730892,0.086104703,0.094369572,0.086107731,0.091798678,0.100771878,0.093227433,0.08901911,0.087605528,0.097060096,0.085049719,0.087213054,0.086235147,0.108857061,0.119347479,0.099884175,0.093312932,0.098761671,0.125285458,0.171951504,0.092980333,0.086760729,0.092521021,0.11446433,0.106961628,0.116105618,0.111204127,0.104167403,0.508767231,0.221755264,0.114898932,0.145223581,0.151407818,0.132536346,0.129793684,0.131720544,14.32550418,14.59845313,14.24433586,14.0019132,14.21495037,14.54565766,14.2483826,14.04288327,14.13089304,14.21084145,14.58454615,14.39543528,14.7949387,15.24252446,14.66535636,23.1349452,15.47769787,14.56778482,14.47223599,14.60171758,14.17388168,14.2789426,14.48378721,14.59031061,14.72215919,14.80559217,14.48863471,14.59172897,14.4841653,14.34819453,14.43047745,14.23637684,14.40387252,13.99079687,14.47351737,14.93284207,14.94755749,14.87084368,14.87953397,15.16693741,15.17207951,15.07322655,15.48147777,14.99899131,15.74354088,14.93825308,16.98314846,16.79183382,17.63642123,15.07106509,15.12203475,16.20892661,15.66140414,14.86462834,14.25143697,15.14215498,14.58930738,14.53605279,14.4355733,14.60867745,15.4556864,15.46275324,15.51254706,15.4859141,14.22571607,14.56793606,14.41375467,13.97418294,14.44287132,15.32870816,14.44929772,14.6826389,15.20727972,14.7007672,14.76909436,14.27058844,15.74019266,15.536688,14.95413791,14.4896514,14.20276811,14.40761969,15.7837707,14.32902769,15.62482536,15.14447039,15.19483332,14.67526361,14.33401919,15.33620578,14.20726487,15.23052886,15.17245556,15.45021471,14.35717289,14.36530545,16.55209333,14.68338233,15.15803163,16.8359804,15.35681039,14.533524,15.55900754,14.48890474,14.92388792,20.78174871,16.90518901,14.56462396,15.05944229,15.06509516,15.28245429,14.79327126,15.51886304,15.67690924,15.42021029,15.47413889,15.39280968,14.70738281,14.71689672,14.26754011,14.70040066,20.81341801,18.27827887,14.8694593,14.14778945,15.30644666,14.27270173,14.88585523,16.87568588,15.06377839,15.02093961,14.86541732,14.44455607,14.50748482,15.07339008,16.77933963,16.12235114,15.36165571,15.97584881,14.03158956,15.39561685,16.26752314,15.3358965,15.11676385,14.65478521,16.73652627,15.31243241,14.64722795,14.63753109,14.49881864,14.44709672,14.12080804,14.68632377,14.3378295,14.99113953,14.54487936,14.75997662,15.18257193,16.07765181,14.55297616,15.67233391,14.65127033,15.36369232,15.84025256,14.59425857,14.47027155,14.61516665,14.10246519,15.96668409,16.7100199,14.76122435,14.87674568,20.57554845,23.99701426,14.28403269,15.42778672,15.09588614,14.89797907,14.87921272,15.05137883
4936,0.151017797,0.154131185,0.159478725,0.152550359,0.157896757,0.157731383,0.154779046,0.156693008,0.148880926,0.163269962,0.150159448,0.158148249,0.150658769,0.154297554,0.155372559,0.14724196,0.159271307,0.159875439,0.162237469,0.153935146,0.161918088,0.163546833,0.14624377,0.160879469,0.146627857,0.159052377,0.154179688,0.158588291,0.165892234,0.15879145,0.153700624,0.154108842,0.183973664,0.165933332,0.179731992,0.180299922,0.166951082,0.167380737,0.168285209,0.164112394,0.162968172,0.172194354,0.15942184,0.163733736,0.164276875,0.16163541,0.168746944,0.164682877,0.162160001,0.165178236,0.153095355,0.162815495,0.153714892,0.165799458,0.15312125,0.169041135,0.159360188,0.162402862,0.154950601,0.170692612,0.169961248,0.163879498,0.1705976,0.154588301,0.157035087,0.164991621,0.170228227,0.157567401,0.154007223,0.165896242,0.15592862,0.159195233,0.160760095,0.162001888,0.156848768,0.156784281,0.146189475,0.160055335,0.156990139,0.16468333,0.154021007,0.15870645,0.153352986,0.150169334,0.144679301,0.161250118,0.1556033,0.162460042,0.141010763,0.156484488,0.155936797,0.151734469,0.15952942,0.151689029,0.15513256,0.171968894,0.154312696,0.153230169,0.156808966,0.149524252,0.144443609,0.155316646,0.155153623,0.150360734,0.150353467,0.157209995,0.155593789,0.155131547,0.150431484,0.147379393,0.153336931,0.15710307,0.140014002,0.137008899,0.155588762,0.147862043,0.157618095,0.143662462,0.150054667,0.153475206,0.1530168,0.153463714,0.155294389,0.136092484,0.145338004,0.149958536,0.145873242,0.152329831,0.162125928,0.152127456,0.157604465,0.149825261,0.139560183,0.144485887,0.149024501,0.146264442,0.157263584,0.144959576,0.155820452,0.143449755,0.163949347,0.159590071,0.161818968,0.159376184,0.151838629,0.146523173,0.149279066,0.143295202,0.151561846,0.15068713,0.146355451,0.148389027,0.149437332,0.151144097,0.211008917,0.182364597,0.161065836,0.176658579,0.151693369,0.156747354,0.163879151,0.169489141,0.159022999,0.151068711,0.152121195,0.184484189,0.257647734,0.298390578,0.305434848,0.269602921,0.281591458,0.276409148,0.297673675,0.274311632,0.279552718,0.26194547,0.290324417,0.275012173,0.264280499,0.144763385,16.53368149,17.08746405,19.60764069,19.26658426,38.1509905,18.3513719,18.16562277,18.70246504,17.25778064,18.67040539,39.27199365,18.39511713,17.59796987,17.45145818,16.65329101,17.46358143,20.59852015,19.73829032,17.93559021,18.08311737,16.53199673,20.8173714,16.47866897,24.58923025,21.28827367,18.71126789,20.28691474,22.49979521,19.60912487,16.66500091,16.74242728,16.31994323,16.77513157,20.12321365,21.3430709,23.69615077,15.22416141,17.04535888,17.60066665,17.6780398,18.8773663,21.92696223,25.8913799,19.93987986,18.32559395,18.65444963,17.81281474,25.30890649,20.10487044,18.97794245,23.297435,19.26817481,17.855986,21.79804092,15.76104632,24.97750303,21.54386337,21.94842386,21.82007737,23.44662058,22.00982303,25.73911477,23.71743077,18.37992698,19.20564254,18.57911351,18.89003553,18.39054537,22.64550859,16.13164286,20.99649618,20.58467358,17.62491417,21.41605049,20.00194469,18.99247375,20.4901455,16.09488052,15.86758569,23.01033996,15.91577538,17.97282137,16.44444648,21.29490435,19.25985029,18.95516603,17.95264705,18.32439503,16.76572989,21.94160215,23.00726705,16.9955495,20.71615764,16.52342967,17.80600188,21.20132129,24.97009386,18.68702491,22.77425792,22.47770114,16.7688605,20.62924721,31.98981647,38.23755507,36.2911328,23.61378708,17.54949417,37.03779808,18.04493703,18.48081525,29.75241159,28.04652702,16.62659436,17.6967832,17.16916787,18.99201149,17.32708097,16.29285519,16.80277658,19.49110877,22.66300898,20.53707401,21.3920533,19.6077821,16.89646764,17.12626224,16.10628992,42.61512431,22.49216453,15.32178656,29.25210962,34.88150716,31.85769641,24.76438268,18.10128633,19.0001565,28.37007717,38.33685127,23.1857709,24.16839915,19.93048223,28.21810757,24.35723812,23.32586034,18.06304577,21.20930891,22.46265287,16.46925006,17.50312482,29.46462831,23.98866602,16.03826589,17.59637441,34.97764025,35.39913429,22.08276967,21.18815151,16.65816803,16.13834636,20.05702071,17.99745051,17.54766011,16.6231847,20.78042306,20.74490845,22.80028899,19.87578983,19.5847077,27.32166075,18.91812865,21.89403584,18.23995662,23.36074442,19.1278591,20.37869828,17.24234434,20.01885785,20.61620364,19.74867312,25.68076544
5091,0.19907135,0.186425053,0.211340584,0.202742489,0.18915202,0.212781547,0.207038719,0.197609601,0.217205225,0.200532393,0.204215212,0.220925312,0.210666845,0.197601408,0.214212409,0.205438642,0.202262441,0.205308248,0.200706189,0.209736245,0.207480653,0.153714749,0.22029899,0.222509703,0.216689713,0.215320968,0.207819586,0.187122252,0.209908747,0.186614638,0.192419925,0.202229937,0.199166017,0.224322573,0.173849844,0.203937159,0.209218363,0.199890258,0.190751964,0.210468719,0.205287131,0.197711392,0.214791932,0.208403502,0.19201661,0.201407451,0.206965738,0.19002253,0.196842575,0.21464245,0.207361061,0.10055408,0.19577203,0.187347732,0.209899147,0.199308542,0.232899786,0.222002438,0.227811087,0.206631067,0.209299302,0.222029558,0.224234648,0.222587119,0.218801782,0.195209843,0.195678133,0.160508417,0.208771787,0.100396788,0.241927792,0.206518386,0.239157864,0.047983255,0.095726046,0.149426356,0.24537731,0.260513478,0.091004453,0.090237277,0.205425334,0.232301688,0.214933343,0.229948266,0.21898747,0.200303127,0.207811516,0.163600616,0.213545644,0.212792422,0.210752985,0.196985429,0.185940483,0.221489763,0.20769144,0.16382298,0.203661928,0.205897414,0.225777376,0.218074866,0.201175293,0.20689136,0.225579754,0.199302601,0.198622945,0.197834596,0.188565686,0.194950809,0.211100836,0.19169691,0.19768379,0.212529437,0.209248699,0.102332131,0.205708237,0.060734744,0.229978982,0.177945592,0.189494063,0.173160182,0.196236996,0.197086163,0.194986982,0.197418479,0.192242426,0.186973614,0.066807443,0.094105753,0.214224991,0.212188032,0.189967036,0.182468856,0.206129607,0.231341908,0.193399521,0.207999442,0.218421499,0.2027556,0.205016825,0.218451311,0.21469492,0.186598022,0.196989372,0.195168494,0.203333968,0.216896788,0.229040838,0.184238834,0.215732399,0.207574389,0.227169027,0.228921836,0.205410935,0.205903645,0.21745582,0.230337035,0.222480041,0.209258617,0.225173274,0.226474423,0.212013995,0.21622804,0.205151403,0.222660868,0.214524212,0.229406552,0.218483298,0.22360811,0.203700801,0.203775322,0.214336224,0.206471028,0.212876345,0.224732,0.220848916,0.208680658,0.213730976,0.207786856,0.211564611,0.215323205,26.5356206,20.41123106,25.3771942,28.14754964,19.54988347,27.31841156,27.43330488,25.73091749,21.54376028,23.63950808,20.36106937,24.77190438,28.51662184,23.65431666,64.46931215,35.97191767,26.42649657,23.6093056,41.67081069,22.36646155,32.11988648,47.24806281,31.62081389,21.76592257,47.95815732,50.89672305,31.45396313,59.53289324,23.52772487,22.30539701,22.13119308,20.96069044,35.84918528,28.58330984,45.23029163,61.21289847,36.53547821,41.29440819,32.81629767,25.69176512,22.10098958,24.04116062,25.83915906,30.50818147,35.29609147,23.91213649,23.18452187,25.13236381,28.02969384,25.21545893,31.92568195,67.90517616,35.76087687,34.27636003,32.51798833,17.82802645,26.65484483,20.25530135,23.74196939,22.18831051,22.38308932,20.66658884,25.08970415,28.32203714,22.3881796,36.28943249,35.27078532,54.96787155,49.27964241,90.33126775,29.34007956,32.67142736,32.58538807,82.73543929,34.25958272,53.88222093,24.90101984,22.15825542,46.3526584,37.46923477,36.6842704,22.91559398,29.7811343,33.49073842,36.63207421,28.39393246,29.60550678,36.77285985,26.23986466,23.58416614,27.59091324,29.61703877,43.3377619,26.75961391,36.95851055,51.7296597,44.85201677,28.4883843,27.80418793,24.91803854,28.23925792,22.63308866,27.66201823,23.70655929,26.83004507,21.1784251,20.82883496,22.02926909,31.35993275,36.10581086,27.18702944,23.83619078,21.72264561,43.78542191,49.63037993,106.3187416,49.29642621,38.24061357,34.45318876,36.41971635,33.41368505,28.6424936,34.00872649,28.27872545,31.65317589,31.9431951,89.27911656,29.36753006,29.26988287,24.1593693,35.74392545,39.69023169,35.0234344,28.47442319,32.91766145,26.84822141,28.32557235,29.75218359,34.7942618,29.48166726,30.72961436,32.2265762,34.3927743,28.76487504,35.22244463,32.29739112,36.34847943,37.81209662,25.5370217,22.91014174,25.40799917,22.84293091,24.66522068,26.93534674,25.29132979,31.61791425,25.23240303,22.34579032,27.09156732,39.62504014,23.49334006,24.9342293,25.63860319,37.08709285,32.24181095,38.63887218,26.96254217,27.41642756,25.29986326,27.85436687,24.48114372,25.62568537,24.43188639,23.98070323,25.34572606,26.31852702,27.40533575,39.77805517,29.61270374,29.66732935
5121,0.157867948,0.113428076,0.09718975,0.109901492,0.11725852,0.174860111,0.111267909,0.106114696,0.106594322,0.094430305,0.137906007,0.162585542,0.174595649,0.007467429,0.019463466,0.075587644,0.174339122,0.198116554,0.213501558,0.04496604,0.03939854,0.086908828,0.211058159,0.012548496,0.040575393,0.075950113,0.144310653,0.133908475,0.126608941,0.152646565,0.082873965,0.119009196,0.089612853,0.14432177,0.094320575,0.092072811,0.085163326,0.093211137,0.121748721,0.102127794,0.120128702,0.08302987,0.104667438,0.093044318,0.089284593,0.108023513,0.108160442,0.115927226,0.185649792,0.172035118,0.14132958,0.084192149,0.085179687,0.076357291,0.086559024,0.064764871,0.082476049,0.074293597,0.095166162,0.10806375,0.075938192,0.06364359,0.076930885,0.078172725,0.073178306,0.069733233,0.096935052,0.074395026,0.073308747,0.078406012,0.069633227,0.076043642,0.076047265,0.08164633,0.074435732,0.085388579,0.067421272,0.078728012,0.075056087,0.087831848,0.085780033,0.083581735,0.074030792,0.079781746,0.077459858,0.07663344,0.076790132,0.073737474,0.078417886,0.07309487,0.069089897,0.072194239,0.079451504,0.070875644,0.072564442,0.067107515,0.074999879,0.071373043,0.074820553,0.06817598,0.071402536,0.079909412,0.074434843,0.084801731,0.066536463,0.073304213,0.076062588,0.083711534,0.071105017,0.076965956,0.080553742,0.072868778,0.073734498,0.072249387,0.07726915,0.068747424,0.066478011,0.071167336,0.071604799,0.075471585,0.077275858,0.073593388,0.077481021,0.0769384,0.073909039,0.072357512,0.074036064,0.073464598,0.134705725,0.157649773,0.123457936,0.092916311,0.095903733,0.089324065,0.093875893,0.090731433,0.093613405,0.078758388,0.095623666,0.09150651,0.085086424,0.087360447,0.107693028,0.084300485,0.090074622,0.0990454,0.134961154,0.083719341,0.090956611,0.079270665,0.091668684,0.083025381,0.077108586,0.029393277,0.091543245,0.486734601,0.49626246,0.489332598,0.523110507,0.544864785,0.531939556,0.479634478,0.528933333,0.014688216,0.074721213,0.117119198,0.127286386,0.104270875,0.084108459,0.100628825,0.099035748,0.13735462,0.107916833,0.13873078,0.104008071,0.113357444,0.098461235,0.089639398,0.081060579,0.083863048,17.79225462,14.2401815,14.50011056,13.97031504,14.33565223,17.99714503,13.95093533,14.21525544,14.42799614,15.33856698,20.08314,42.48771012,43.02333991,118.8865672,92.83831281,27.52540591,35.37170743,30.05547593,27.94599763,57.30512421,46.03002474,71.56629334,29.26115583,135.06568,85.03628798,73.28429077,36.30927026,16.2127601,15.51074715,26.26986908,15.17017984,16.5189227,13.94006348,29.75144162,15.04351793,14.20070033,14.60371308,14.27924005,15.1057051,14.65851553,15.76383251,14.0828224,14.38775213,14.92605465,14.53403077,15.18557932,18.52558655,16.3867037,28.47904527,21.30059932,15.58880735,15.94298979,15.96969293,14.04227249,14.05939482,15.42976678,14.1247226,14.59896952,14.58909449,14.14897498,15.67459838,15.42585469,14.58025736,14.71838906,15.01572867,15.35266477,16.89288698,14.74625656,15.19797004,13.81600407,15.3250121,15.22360949,15.02648311,15.76800753,15.30846023,13.86183987,14.23086552,15.80853089,15.0033437,14.80607419,14.53538466,15.83155536,14.98680545,14.78188932,14.59847497,14.16598727,14.25135162,15.76688095,14.20660723,16.79120626,16.85729053,15.52766454,16.92158113,15.88906082,15.10238466,15.03960215,14.45073277,14.23513179,13.9279377,14.37805295,15.02763269,14.42559427,14.23122303,14.24520494,15.75351514,14.46463584,14.27214489,14.08787835,14.52178649,14.17569096,15.94689263,15.25595665,14.75480827,15.49352007,14.20941555,14.13124502,14.3084277,15.78933512,14.66184298,14.54917603,13.97245606,14.66794445,15.55939062,16.92721338,15.16801343,15.06774901,15.29234639,14.11540139,19.30104747,24.43947696,14.38117544,15.98881859,15.51241232,15.13342277,14.42466864,15.08542965,14.6944645,14.58365149,15.07886126,13.93337352,15.18660977,15.72877828,16.5873958,15.03024682,14.18541937,15.17782105,21.55995333,15.35406043,14.38605584,14.62909072,14.82390271,44.60159634,37.77617093,64.03780613,76.06021871,28.4304026,32.81379872,23.60687318,24.15318939,21.90755882,22.03536595,24.82359166,20.61400263,83.75755607,53.62100789,17.28179764,16.09097103,14.89543125,15.57116846,13.99895356,15.16215717,17.83026955,16.10695492,18.87463714,15.09466058,14.94669103,16.37713243,15.21174875,15.14068652,15.29431965
5261,0.511801588,0.52745475,0.482847048,0.606361049,0.408215141,0.53674135,0.606377846,0.578563689,0.604285408,0.529742936,0.516566434,0.538447534,0.617273368,0.55726733,0.482926839,0.518209666,0.692512461,0.668752936,0.691075393,0.631742089,0.603533036,0.480129646,0.717406449,0.584852961,0.534334587,0.445575068,0.28469066,0.241742346,0.279160581,0.232624303,0.265350548,0.236244695,0.23487042,0.261943184,0.279450374,0.264660217,0.264036825,0.282223468,0.297470277,0.273522387,0.28399469,0.288468947,0.27844571,0.274334694,0.287365546,0.272514321,0.272038424,0.283025772,0.300157871,0.293619306,0.294234753,0.27690518,0.287462221,0.292947829,0.459311768,0.452058362,0.399515024,0.435379511,0.392927025,0.400552164,0.51923701,0.571843251,0.51327097,0.519749976,0.494481189,0.526408347,0.50210527,0.498214322,0.392040505,0.286249376,0.268022834,0.284614184,0.277873986,0.270231049,0.263351441,0.279260677,0.267344587,0.304302165,0.266897934,0.308930462,0.302546613,0.297855934,0.298300454,0.255729931,0.211519822,0.267200692,0.285523061,0.288843511,0.270890074,0.322733779,0.314987328,0.303984972,0.276954791,0.278984015,0.279371275,0.331403002,0.282908249,0.256415055,0.28829405,0.274090452,0.206232939,0.293984762,0.336696305,0.329970138,0.325035243,0.390666661,0.357088196,0.331830888,0.365640172,0.375966321,0.268930084,0.278011486,0.212678423,0.245887306,0.257609745,0.267069928,0.277078861,0.273219987,0.287898633,0.653247164,0.354941562,0.431733317,0.384300857,0.381613124,0.415759207,0.38878291,0.428391553,0.410178335,0.455546754,0.283140146,0.312779353,0.483874583,0.565195719,0.616133938,0.734667761,0.564070639,0.457798822,0.47437865,0.483382942,0.505220585,0.345106009,0.506863992,0.481290093,0.419731422,0.344932033,0.265484679,0.290356988,0.250839835,0.277064956,0.535690849,0.339595312,0.266928645,0.300941023,0.347733261,0.311121456,0.358405612,0.289929075,0.333618497,0.35917821,0.313194789,0.308720366,0.333361519,0.417373353,0.416094611,0.435496003,0.365258727,0.341567494,0.315835356,0.369355442,0.318253437,0.27361792,0.335059999,0.327224721,0.319353416,0.332808573,0.328781721,0.321560923,0.342209175,0.438021616,0.461654533,26.11891351,22.96581058,30.14268895,26.24460129,20.7520232,25.82073714,24.83635791,22.92085755,24.02738734,23.23531791,24.21510755,25.54184161,25.09339785,28.2720997,24.16563212,29.79953929,28.33378662,24.71443807,22.02705046,27.54650079,23.87443714,29.37011391,27.9879736,26.03467314,23.08677695,22.12407425,18.2193898,22.24677349,24.69211728,22.11694758,19.7130056,20.94061836,19.48213773,21.28351848,19.72583514,19.04956393,19.75575359,23.62971011,19.78266262,18.97985993,21.93888609,20.99851239,27.62630687,20.01251018,20.97349064,20.26070482,25.29078007,21.2848466,22.39392454,22.10024328,24.52810325,23.79133409,22.90538069,21.45794105,22.32923665,22.14654713,24.13036484,25.65555434,22.59753789,21.65577151,24.23920891,28.28234158,24.27837095,22.98188931,24.76685205,27.21085122,26.56820336,30.21415298,29.84995773,34.50113453,35.56325831,23.19921533,21.18046398,22.00747309,23.48787434,18.24436761,18.35245919,21.50928129,24.8502373,24.21986638,21.59589356,23.0520642,24.70768833,30.14829445,20.51855179,19.28546245,21.99439107,24.16746427,31.55592398,19.98329763,18.7862093,20.44078434,18.1457147,20.67152036,19.2619586,17.69784496,20.60072627,19.58007684,23.17355849,20.12042086,38.96754237,19.9039029,20.81432247,22.8021167,23.35007309,29.78833308,37.48422245,22.50530011,24.48683146,23.30908186,19.88640691,19.70035559,37.55004406,21.87954487,19.06382869,20.2838505,20.65956626,20.64567375,20.67392117,25.71156765,37.05026464,25.33579156,23.97594595,22.122318,21.90050436,23.45409135,22.43505131,21.36245784,26.5655287,23.1543194,33.52638321,25.63048121,23.11957997,28.02106022,27.28105515,24.63109748,28.48220842,20.55881655,27.52507881,26.30313162,37.65406204,24.59339507,25.21206631,22.70376368,23.74712937,33.09068701,19.27877543,18.33002143,19.67478818,27.91805195,24.74353159,25.58350534,22.46630291,23.14402184,28.59227598,22.92242704,27.29851098,21.12306101,20.02361156,19.2234547,24.27478226,23.07965644,22.87697116,26.52171976,18.70026197,20.90461326,17.9188868,22.13060307,21.8177962,22.1160394,29.09126995,20.96102888,27.02478363,23.68227427,19.27732643,18.85318678,24.48999936,22.40343812,25.33256936,27.66230145
6426,0.237550038,0.224548617,0.239770519,0.24177768,0.228384113,0.236043651,0.248887416,0.232466601,0.230338018,0.192657685,0.256182064,0.244930595,0.263307506,0.237066806,0.230961885,0.226991253,0.260595416,0.225364528,0.273818775,0.230983173,0.247526643,0.260851006,0.184106616,0.233617412,0.306564084,0.24181398,0.223876278,0.239889605,0.196381363,0.224136396,0.239403126,0.207231621,0.244880038,0.263355484,0.255262595,0.23790865,0.223985034,0.222535615,0.19467426,0.20373323,0.201243757,0.223024333,0.199097753,0.225383034,0.224943566,0.191643523,0.22692953,0.245413683,0.211310765,0.243908443,0.229715982,0.202047312,0.210625658,0.225185375,0.229230485,0.214571076,0.230848235,0.2511418,0.24073063,0.215082141,0.221056399,0.225250576,0.265420448,0.244469871,0.223839987,0.20230244,0.211354623,0.23864991,0.220124294,0.264771039,0.243265266,0.221164235,0.25104245,0.225522383,0.247233691,0.198940551,0.22017779,0.22994145,0.234033683,0.222708446,0.206428412,0.217081257,0.222712188,0.241653701,0.246479596,0.202087837,0.241478881,0.214230583,0.237572593,0.180813111,0.220132674,0.281883809,0.213563391,0.267230062,0.230779184,0.246167687,0.207793616,0.196427254,0.198936317,0.210758943,0.246018926,0.269104027,0.301213356,0.259518158,0.285167956,0.314910857,0.290473463,0.26632731,0.23529563,0.28879415,0.239886789,0.26502998,0.266427736,0.275109383,0.214176045,0.239506066,0.208443688,0.281597118,0.258344498,0.234256692,0.238427703,0.206492988,0.249458094,0.235898411,0.251907793,0.267811661,0.275650812,0.228940344,0.191210938,0.166999381,0.242460906,0.233104291,0.284540221,0.22543449,0.185407625,0.22540627,0.232420162,0.20721057,0.219789322,0.244643911,0.174448987,0.223165412,0.187392878,0.19265447,0.249253089,0.226827905,0.218198808,0.25236476,0.306207876,0.39892854,0.293461865,0.401128029,0.531004107,0.317461621,0.290643384,0.219863861,0.26433239,0.252924341,0.283987468,0.249694004,0.280571177,0.263910298,0.374112919,0.334743938,0.279522208,0.297100289,0.297073603,0.273697082,0.296114915,0.30541626,0.271483934,0.288169001,0.352106606,0.298665258,0.324165503,0.251167129,0.273793393,0.289917774,0.281685088,0.282138797,15.01181075,30.14876565,16.89807775,16.39672352,15.82672237,14.51957662,16.54246574,16.41643749,14.9068011,15.16392662,18.33776103,25.37513716,15.48935707,14.81718994,15.00703427,14.12833776,15.41420628,31.72240966,20.02223857,26.24577815,16.12136265,16.33467376,27.83413099,24.68130215,14.9364419,21.87426674,27.96582173,16.65320494,18.46685945,13.73640214,15.13376799,18.15118906,16.04038122,15.23228013,14.5798448,15.9753641,13.62567241,15.03982689,13.64693008,14.5859397,17.98231676,20.41049353,13.77852422,13.99974681,14.70360145,15.07775898,15.79764171,18.03081787,20.47546739,17.90075047,15.95219174,15.15322809,15.62827195,14.64311697,14.74142377,14.98888006,16.58623031,17.34838627,16.35390782,18.56469043,14.29523949,13.82057943,22.82315908,18.35837128,14.52380229,15.92973665,15.20873668,17.32257225,15.39375643,15.10352341,14.8982799,15.50281652,14.68083154,17.99647339,14.99840461,16.71655983,16.26968862,13.99561486,16.65302267,14.39887346,19.0572964,14.74942133,14.08750064,20.10839172,15.36659991,15.14493232,18.42173886,21.6534455,15.7433309,20.42282023,13.91758253,14.77544205,24.62177555,14.47542153,15.53341455,13.89917372,16.76132289,16.26263289,15.55945414,14.46956463,13.89816663,27.76603375,17.19538013,15.9234546,20.88173629,23.90496077,14.99661445,16.92574979,14.64252935,19.48519554,20.14941604,27.02274555,22.44870032,16.79913656,16.93753694,16.99814489,21.80055994,17.74229866,13.54316597,14.86051521,13.87007135,16.66337767,14.04293875,16.01538331,18.37048093,16.58675183,23.02176767,19.04708104,27.57488204,37.14394107,23.247796,23.84268411,17.20899314,25.9411664,18.85474581,15.33678458,13.60286243,15.04498837,15.6612156,17.89504672,14.46531529,15.74246262,17.409801,15.6425336,23.62956002,15.85201605,14.39163022,21.50512191,31.4345179,22.88672977,29.9105536,20.90075112,23.2707004,33.58710229,41.18524,14.09437614,14.707471,16.29798335,13.83116556,18.63720725,16.38531552,14.06050451,18.10398672,15.34999215,17.19745159,13.9425256,18.95281541,23.51410601,13.84120037,15.50302461,15.09393891,17.13881267,16.08349665,16.3416279,14.94016204,19.27759985,18.70036694,15.77671128,14.23778218,17.99949124
6453,0.200257283,0.195508878,0.215724979,0.265043861,0.246122039,0.27335416,0.179867213,0.184277458,0.213660099,0.214448478,0.192429587,0.238958664,0.205386665,0.188703346,0.182192854,0.181131114,0.177286891,0.194999551,0.175893713,0.205436021,0.17973616,0.192085054,0.179230561,0.195195224,0.178257844,0.190798165,0.186340394,0.183867498,0.190867365,0.192786652,0.189643366,0.193836682,0.179897728,0.175751903,0.186964685,0.182331244,0.189633912,0.177815595,0.471145994,0.628533626,0.573332308,0.646059293,0.504023795,0.324432135,0.319311195,0.305794838,0.386318175,0.353349433,0.382702496,0.342140684,0.216835276,0.318895256,0.293299404,0.320334866,0.383366087,0.304621681,0.270335751,0.24259172,0.281429816,0.290845279,0.288262764,0.234308796,0.369243144,0.253594478,0.258944359,0.216107268,0.567488431,0.452161069,0.308023125,0.269923152,0.50073991,0.237725811,0.266954306,0.195246929,0.219520632,0.27129628,0.201700508,0.208482927,0.248483716,0.193992078,0.476426036,0.25762495,0.219333146,0.202387613,0.205349604,0.180175619,0.195055562,0.37609473,0.209975532,0.256699525,0.169912867,0.302204932,0.268028406,0.228973198,0.234481696,0.19695838,0.240228732,0.195733341,0.196626505,0.250165195,0.24184694,0.217552669,0.229530465,0.222557696,0.246744258,0.273560937,0.26201964,0.222984021,0.23896539,0.250327481,0.264569246,0.20278395,0.219308174,0.215294406,0.261169002,0.44221699,0.528485027,0.411795536,0.432483497,0.500035573,0.375055433,0.224073152,0.197046545,0.192266026,0.204563851,0.205500253,0.220270756,0.219275654,0.401849598,0.390422429,0.206568617,0.202037779,0.250554947,0.191807878,0.252881091,0.242605588,0.235831019,0.223004885,0.224990198,0.216702906,0.228672916,0.213304288,0.228701659,0.232577311,0.260083496,0.29815925,0.26545306,0.253418978,0.212544972,0.243513376,0.300661371,0.337429458,0.294504019,0.254079477,0.298620003,0.230603584,0.251538699,0.225316955,0.204502291,0.19953684,0.190836102,0.226143672,0.202344809,0.197730206,0.194950556,0.192283248,0.213210318,0.198905651,0.203170382,0.203447636,0.16736286,0.17368862,0.193117806,0.178309226,0.178621865,0.160529397,0.187416901,0.17740403,0.165453823,0.164862208,14.20235974,13.88728508,14.37568162,17.15390653,15.23761734,16.59007531,14.26846692,14.38079044,14.4019046,15.54609514,13.83317035,15.81379018,14.25231626,20.2802994,20.37844789,32.64988133,20.31087137,14.74048424,15.27492631,15.19373982,18.69875195,14.11307805,14.04671779,14.223904,14.38394071,15.24966943,14.2167809,14.30966594,14.94749896,14.37455924,14.45354886,14.16837362,14.70594504,14.78620629,15.73922422,17.43382215,14.6804558,14.39610533,18.16795766,21.85562502,20.78705489,19.64837566,17.11249929,14.87843247,16.19100949,16.54880902,17.07438888,15.91913823,15.39113424,14.55709826,15.84190724,15.02815617,15.01635313,15.54536391,15.75929667,15.44760455,14.43808588,15.00551094,14.16469275,14.31742138,17.54611312,16.16408582,18.49146974,26.50889867,15.11459722,19.87319727,21.00699832,20.5591276,29.58347704,15.72605474,20.22769899,14.73807822,17.02513778,28.18119071,17.82581725,15.83598195,13.9864886,14.00753847,14.96018543,13.81603489,17.07727562,14.34005415,14.75030082,14.07401168,14.24024069,14.3816583,14.92901198,18.16760033,13.88319703,14.84914736,14.32933981,14.83038462,14.62992055,13.90303766,14.19042535,14.36265095,14.45536299,13.75457573,13.69358784,13.99862325,14.74344852,14.86816668,13.83731315,14.27633561,15.30796354,14.1442364,14.10961903,13.5149811,13.79151947,14.11297205,14.14306196,13.3321036,13.8877683,13.87666158,14.94207094,17.00160833,19.17879816,17.25091148,16.45358882,16.93232812,16.37201098,16.52497576,19.54037462,13.98008622,18.61223526,17.15951637,14.28424495,15.12339672,16.27792655,14.85565639,14.55778807,14.37065308,14.37308154,15.38648502,14.58821479,14.13212043,17.96930572,15.39935232,15.07230738,14.06833472,14.45865232,14.47441398,15.29238283,14.4618557,14.85247973,15.29139524,13.99250689,14.07976618,14.51223534,17.37060137,15.2832137,19.09190779,16.68010039,14.94084655,16.76907613,14.57009791,14.5499874,14.72551934,17.75857865,18.30605774,17.44852023,22.77447238,19.49153956,23.81468425,17.44071128,17.6048433,15.28982028,15.23166601,14.4150264,15.37183844,14.02896456,15.53080264,16.45064038,16.79055258,14.73768008,14.81062977,15.64403173,15.41101685,14.90077391,14.80057843
6995,0.26742047,0.325913189,0.270556937,0.305765334,0.320998867,0.284439349,0.290879169,0.279613938,0.320193409,0.280591603,0.276973648,0.29964436,0.276724719,0.286998574,0.275321013,0.282913694,0.276747606,0.269566089,0.274933338,0.285308253,0.328643826,0.282040967,0.285202801,0.226729295,0.28138401,0.302173388,0.29580688,0.315625651,0.33608625,0.322000682,0.299577915,0.283594527,0.278421121,0.271324214,0.308258967,0.30808976,0.356068417,0.271384393,0.257311504,0.253834271,0.2627596,0.268753871,0.240283026,0.2646862,0.292670939,0.268177978,0.250633489,0.291522593,0.309440932,0.321983273,0.291783885,0.291246922,0.261360709,0.319107575,0.27994109,0.30763761,0.308700258,0.296359166,0.314555129,0.286372796,0.297609565,0.322102533,0.376439596,0.37658972,0.288051317,0.307451012,0.301331528,0.261027586,0.272021339,0.315892297,0.301835157,0.290170851,0.285259747,0.27317365,0.305452139,0.313353791,0.33069546,0.39587605,0.363118329,0.347495384,0.306335108,0.375093826,0.346217119,0.275922843,0.308713411,0.374827901,0.345305021,0.323181144,0.326127905,0.387973828,0.474470264,0.371149839,0.417083145,0.311400967,0.333191296,0.320409044,0.337776906,0.330139198,0.328623314,0.311352607,0.29248942,0.502064878,0.282090362,0.332733569,0.345016601,0.300647817,0.32279952,0.338854489,0.31339896,0.268082505,0.317690577,0.3384132,0.323149814,0.280767191,0.309729315,0.324726953,0.264498971,0.261272677,0.300485243,0.31227913,0.27561269,0.241402154,0.332086742,0.31026179,0.294729505,0.287975132,0.280964528,0.298069192,0.295849691,0.312988067,0.318261425,0.331499173,0.366049602,0.302789469,0.313727434,0.320301022,0.295212269,0.318265253,0.341647895,0.28824421,0.290193466,0.297873862,0.247216742,0.274955953,0.315072992,0.318178474,0.300209371,0.319753701,0.297337827,0.24336221,0.29288767,0.275046896,0.289711756,0.394879536,0.273822127,0.327396667,0.305194934,0.353421414,0.236834491,0.229206162,0.222440631,0.195964708,0.191571796,0.180846975,0.204329247,0.213023368,0.167865254,0.272055657,0.261515708,0.301763404,0.247452186,0.23821899,0.259281326,0.23757385,0.267984285,0.186737116,0.23822635,0.268434073,0.250952734,0.26062542,23.55742072,19.61735226,23.51555439,19.35239311,19.43710162,20.40241604,24.02154624,21.2069582,22.87371655,20.39399569,22.49758537,25.2828331,18.28848407,21.82657649,19.30033869,22.48165238,17.69761361,19.55701966,18.32987703,20.30800405,21.68381269,26.53835104,21.01438688,20.39842371,20.02594165,23.26852125,26.08828743,18.58368625,20.57037147,16.86588609,22.54369555,25.29344406,17.11301356,19.86663038,21.8402202,24.60944077,25.22192191,18.34374001,22.37942932,21.40882054,27.27252307,25.55267615,23.51827863,22.54398312,19.00966094,25.52208991,21.65564782,21.67227572,20.43549505,19.33754395,19.46481734,21.26852938,23.47633707,20.50124586,28.58116083,21.76836514,29.3155013,24.47545598,24.04475673,22.69115313,20.6954977,25.51758172,20.27492994,19.68430124,22.45543662,24.00706973,24.69217543,21.41506075,20.79212719,21.91341119,22.96313114,26.72366324,20.53145786,17.78648406,18.78519434,18.85549735,22.02240717,26.32076371,22.96168975,19.54950112,19.31044703,21.26197481,21.61677857,20.06386243,17.99313442,18.34839093,16.7501443,22.37745505,20.38994663,19.58819549,18.70173914,19.70761066,19.82899563,25.02655286,21.40416489,23.33597533,26.38327909,23.07217164,19.22864837,26.78355002,21.02935278,26.00630673,19.01049267,20.52412249,21.19954239,22.14830382,17.26239829,21.71742713,19.27220389,22.40458865,20.30349072,20.2864556,20.27126764,21.97879987,19.61321568,24.714407,18.20634779,20.37208218,18.00628757,16.93070049,18.21918891,18.50341603,18.68663315,19.48988009,15.29834458,24.51532227,17.30417618,17.91189773,16.16589114,21.06714512,18.63762111,18.4678724,17.40427934,21.42461595,17.47699834,23.05276059,21.78408983,22.80713997,17.37574694,19.15734251,19.21611923,21.41808563,21.71279489,28.68849238,20.31481336,22.83486356,19.1189648,19.84388295,18.24808239,18.46399469,19.3511076,20.35800481,22.61084547,20.81742314,19.51824889,19.17031305,24.98524297,24.80361074,21.31462887,21.32516178,22.04508039,17.9637841,19.70233636,18.81894848,18.25635262,20.20873417,25.60993664,17.6874105,21.48044569,18.96883824,19.24932197,24.00132092,31.54765757,24.21884783,27.21970104,36.33833129,24.8514504,18.16732174,18.80685761,25.48195978
7162,0.295932853,0.35063836,0.235782952,0.194046578,0.349942561,0.346991022,0.322238921,0.145270718,0.156101888,0.295440428,0.252097188,0.20623187,0.22752983,0.153581075,0.238567235,0.144599827,0.234964987,0.495281734,0.275311667,0.355417667,0.260642371,0.308606339,0.317525529,0.326906157,0.324670436,0.378678942,0.430745354,0.248035481,0.310731234,0.268033146,0.295680684,0.355089546,0.384670834,0.232834223,0.43264478,0.318332477,0.228707587,0.310510867,0.332636985,0.44056587,0.408970601,0.325866705,0.255248916,0.296650872,0.282892315,0.156928444,0.276235504,0.213742384,0.108700379,0.183050851,0.226444886,0.267707684,0.393451008,0.445797577,0.285221902,0.227549367,0.225143421,0.281813718,0.366339173,0.420157853,0.450929544,0.382942076,0.320805428,0.198479474,0.316805013,0.334697523,0.410967422,0.28772401,0.208247896,0.224171632,0.307351919,0.361503012,0.380339144,0.433030493,0.349634161,0.332166389,0.286638198,0.317648902,0.334128209,0.233084172,0.341852746,0.154780698,0.281182247,0.303204662,0.190044193,0.312166088,0.351966949,0.426498099,0.410402964,0.275859326,0.36346629,0.270372907,0.266923176,0.318969307,0.403581505,0.309947909,0.304555117,0.301283816,0.243105137,0.294576674,0.42845395,0.410606675,0.324972195,0.2132002,0.233875458,0.336824654,0.3082093,0.421531681,0.417447787,0.41549969,0.30100798,0.289321984,0.316927768,0.335186093,0.397723769,0.361067987,0.436516105,0.332971131,0.3111303,0.325161718,0.340326177,0.263685529,0.387290927,0.461093011,0.363261919,0.144198726,0.052627034,0.251557,0.35237414,0.324355506,0.38923234,0.336932511,0.282521481,0.093388214,0.233499724,0.347771228,0.386315509,0.464354749,0.423632646,0.277886622,0.249507597,0.323511826,0.362063999,0.420938729,0.267550773,0.253621048,0.266852303,0.299456432,0.217359439,0.343823093,0.435636624,0.437681729,0.329496816,0.265298089,0.181622797,0.392877385,0.3612518,0.095447732,0.436291585,0.234747011,0.286882552,0.187063637,0.270978025,0.355238873,0.371065737,0.46647075,0.365967116,0.313378333,0.315896321,0.345711875,0.314175151,0.435944782,0.366859637,0.334340998,0.334436672,0.328765615,0.315941302,0.296391965,0.396527531,0.387878703,35.05957486,21.01697881,26.4376046,25.98885489,21.20233908,37.75263699,36.22004267,47.38147228,30.87447287,29.25597965,29.8129635,62.07376607,44.57578928,33.7310463,32.41424522,42.44512345,55.3510921,22.91446893,31.67645093,23.38346339,36.12740868,48.64331193,25.27044638,25.8839124,19.65519483,23.83702344,19.65998935,41.94064438,34.82553726,30.97366015,26.86716348,27.65995239,26.41414037,30.94981038,20.14483483,24.21796194,32.34491572,20.29373076,28.69166696,20.0079592,22.18925963,19.92927798,19.96685313,24.85064061,28.58220492,78.31217139,79.2771323,36.93462945,70.51258479,28.25564032,22.39387432,24.25153653,26.6228561,21.51724302,24.48246984,23.64405348,30.10409545,21.4778852,21.37971053,24.71130497,28.18179679,21.70081875,18.64450506,39.63430952,21.25006713,28.48409985,25.55272,25.84252614,36.26211487,29.70797073,18.8379824,19.93581204,23.23118027,20.90994572,21.39555716,18.87858648,18.90807424,19.00685304,21.73031365,76.53633634,45.47992934,79.62443677,58.10371396,21.37145286,48.55106246,29.83814591,25.2182137,22.92849085,19.69299542,24.35445289,18.45266645,18.77332534,23.94535912,25.84163801,65.53985267,34.90035782,26.12909274,19.03751243,22.07183006,26.48500032,36.97984838,19.53955588,66.94004418,25.6035567,38.69275595,20.82645779,22.04038858,21.74233003,25.03136296,19.66024305,20.34366828,19.4302825,25.58578898,25.36986824,21.33697416,28.19138039,26.69793162,26.10657926,20.58784647,20.69011986,24.6413439,36.01602239,26.84790485,21.66433371,23.20142388,53.28527443,53.0858908,21.93815001,24.15853129,33.02919416,52.70805091,39.93439176,22.19367752,56.62637357,23.05561906,24.57889032,21.97950773,36.10596878,21.9415509,23.48698115,27.22882711,19.47204601,23.07542277,23.11174432,49.85899816,29.73022555,19.15891601,21.70641033,38.49739206,44.11621842,54.53044554,46.06569636,38.1770753,28.14109802,79.40745483,49.10232278,57.09757402,97.46204105,88.81238805,51.1420601,27.21574016,52.03304265,28.43230479,34.18056617,54.32226267,31.35614929,29.10281025,19.70299866,19.72455834,20.21880933,25.47509659,33.91796455,23.74603011,57.98063008,35.35617227,20.02903147,21.58847815,28.09639138,23.60904179,29.97329849
7859,0.864865544,0.860045948,0.723510762,0.332597384,0.347870588,0.273283655,0.505977806,0.523816919,0.459593067,0.275714186,0.58651134,0.487969076,0.475230096,0.316738277,0.599169951,0.486216654,0.633631993,0.793865063,0.331739741,0.455209402,0.290899532,0.259046493,0.211633242,0.237921367,0.240923316,0.312005234,0.495536372,0.410362905,0.192622704,0.229087383,0.20987969,0.339346578,0.271553076,0.254958444,0.301946899,0.300457155,0.206157675,0.336861682,0.311181285,0.334398429,0.297925684,0.184531637,0.192113331,0.257656435,0.265585495,0.185024814,0.156356462,0.616840376,0.341755721,0.400385264,0.194100854,0.2658602,0.233622485,0.267136873,0.280355242,0.264219823,0.273983676,0.374103645,0.410399485,0.396697376,0.421986819,0.682209613,0.656995506,0.614625337,0.333661411,0.287667349,0.298810622,0.352496824,0.238064661,0.227882186,0.200168668,0.25724481,0.177576369,0.288851317,0.266688073,0.255303135,0.14957988,0.21950915,0.259229693,0.231353186,0.285190148,0.335386714,0.317499584,0.316464891,0.343119603,0.345793422,0.340976236,0.266436907,0.24365037,0.242585753,0.207998678,0.350335199,0.284700779,0.195589062,0.243792669,0.294543983,0.235871626,0.291624781,0.318540677,0.418925313,0.554014726,0.340915232,0.481354716,0.336888643,0.332006753,0.297307925,0.185497403,0.328945986,0.421673392,0.292232186,0.395168166,0.464214873,0.474794825,0.527447101,0.434720098,0.349714506,0.351598763,0.232752507,0.293272574,0.161703769,0.231023679,0.24249228,0.106258331,0.320043381,0.281924863,0.263850947,0.26971778,0.2302567,0.241994949,0.259261561,0.364771902,0.338733205,0.287246718,0.296989346,0.312488432,0.107089642,0.221202668,0.2746558,0.095059427,0.162016063,0.295779175,0.217351308,0.401872687,0.300592424,0.347004835,0.343383192,0.340607156,0.35287641,0.359433187,0.156947884,0.413670901,0.229917793,0.195587485,0.632531629,0.276554462,0.3850287,0.464584753,0.373490194,0.270113273,0.232306908,0.315290221,0.218839266,0.254877713,0.252205114,0.189408838,0.323123503,0.217776518,0.216949219,0.270357356,0.23171525,0.157761006,0.171147244,0.148273557,0.09097272,0.182303698,0.297702228,0.446378691,0.174599479,0.221644457,0.241980967,30.76480528,31.25019738,27.50820284,29.36238925,30.5116992,22.84883342,29.95644335,30.32075667,22.61153821,27.68898853,38.62583369,22.0753505,24.19844618,35.80540744,34.81301177,26.89693902,26.45115711,27.41650979,40.54689065,26.76291878,35.2432589,20.0777462,19.33520134,18.55445916,23.34868459,23.16613847,28.15372158,23.22683632,16.67090338,16.41337222,17.32641065,18.35447864,18.55210351,21.59519926,19.22588025,17.69476632,20.25391786,16.8569528,18.68576919,18.87822026,22.27341943,38.98363186,27.50442515,29.78579259,49.32682512,53.34119549,34.03654953,32.93022381,46.2350567,36.41010455,45.77692699,25.02154998,31.01483943,19.54874167,31.57672817,22.71871411,31.44955287,24.77572849,22.35813181,25.5621507,44.02407823,29.23584405,27.6893234,29.63755993,32.15228069,29.21764424,32.7336524,24.78469426,37.70908833,26.33562899,43.70692037,31.28421369,31.40425935,18.79924359,19.76231904,20.29047746,15.38191356,18.11423638,17.5168385,17.89460155,16.25294266,16.33543276,19.45288659,19.68147443,21.54561466,18.58720352,16.96237029,16.76353555,16.96584793,23.39736741,21.376309,19.04524263,19.65627502,50.9599401,45.53966037,35.60077044,43.89702697,28.94068938,29.39291857,35.40391137,27.91597345,31.6923564,34.20595743,27.44994146,38.82506993,32.3145801,59.49653936,33.38989851,32.08582239,26.70441526,44.67834994,28.50669549,32.33560972,42.29507328,27.18753243,27.51661616,40.89582383,42.68803101,22.61652167,68.71488875,49.85124997,19.2960095,48.48109316,31.438199,30.32124021,43.41187511,32.72554016,21.54829109,38.93812191,27.84949963,19.83201463,19.20546448,17.00485825,20.38196619,22.78434656,41.90632293,48.37009307,18.69378238,79.25132258,44.92911866,18.59367744,20.8324379,21.66086292,34.65089488,26.38796863,19.42868898,20.867284,17.48018168,24.40220105,42.66408254,24.79520277,37.23629473,55.80569299,26.71444995,33.18160193,30.82001532,27.20748927,28.86361024,52.18147289,47.3427676,26.52183012,18.94798293,19.1142824,19.37674628,21.2261483,23.37369851,19.31442912,19.35971284,24.62242964,34.87566057,43.86827745,35.01627514,39.40727812,67.61049674,38.33186059,43.03405733,29.69095563,60.8236836,20.94848298,37.91469447
7879,0.267639083,0.252727486,0.254969977,0.257596253,0.265644086,0.259051531,0.304843936,0.30948676,0.295053681,0.27933302,0.310137919,0.291836132,0.335887257,0.300836412,0.297043754,0.285260234,0.11754025,0.255087896,0.284440129,0.154724376,0.226148078,0.288009756,0.2905961,0.24284938,0.271317907,0.29580658,0.319575124,0.292096653,0.188920378,0.291558812,0.122765175,0.17033089,0.331926235,0.303040318,0.278227076,0.316289479,0.304551902,0.33367911,0.265731996,0.328246529,0.278691464,0.292088875,0.262982655,0.255372989,0.283825029,0.290296865,0.292583047,0.303577881,0.238849761,0.114397845,0.281003214,0.470502771,0.409939389,0.589436011,0.090007618,0.245353118,0.13211712,0.3032319,0.468411692,0.426758779,0.382452301,0.166731533,0.311754943,0.34186102,0.308456369,0.279258432,0.387539207,0.479347785,0.387319876,0.392775613,0.343108179,0.28153446,0.302279093,0.281439059,0.366468512,0.417917418,0.295006984,0.390299688,0.401501494,0.303449968,0.275366056,0.360536741,0.25058435,0.369935687,0.384557191,0.326208785,0.28547762,0.346037193,0.370573592,0.230932861,0.277089521,0.274897346,0.220840754,0.061924972,0.06598871,0.054099683,0.06954207,0.069450182,0.093711622,0.177404397,0.129451183,0.159055423,0.312540668,0.263435029,0.094931474,0.136878179,0.183466834,0.139838793,0.23988647,0.289303501,0.241941514,0.420232872,0.263298745,0.315897773,0.261590589,0.189887747,0.290581981,0.242711841,0.278684308,0.276040087,0.258617498,0.228634519,0.289970479,0.239534545,0.279757427,0.218315618,0.228325396,0.258442042,0.241343655,0.145797132,0.217037625,0.245380078,0.207688386,0.238833034,0.259972378,0.256359107,0.251115006,0.275169793,0.231472889,0.273403012,0.268168162,0.275032734,0.212442284,0.253817644,0.24485932,0.241004423,0.239324242,0.17713953,0.259842159,0.269362949,0.261031608,0.266822227,0.263032731,0.275671152,0.230692333,0.259385944,0.263495005,0.086502852,0.120186871,0.196459718,0.298372596,0.255191914,0.277782682,0.256502337,0.239898364,0.245217388,0.221360091,0.252472109,0.253797975,0.240157957,0.27339999,0.245867623,0.23587377,0.252562961,0.277990247,0.236848032,0.221994514,0.278188886,0.244339603,0.272352616,21.30800711,34.63760753,54.22008708,31.8031985,26.77660526,30.14535562,54.6381178,46.41668338,33.68238184,27.53745926,22.64621806,23.1446186,23.97935544,49.79467384,34.84324513,23.59958789,124.834252,29.9782032,30.96443212,42.73442074,40.68084906,32.98083347,28.76527305,50.47470696,28.57591058,33.42626101,28.07404593,34.83454286,38.01554027,22.37123644,92.01345154,43.62558637,30.07370553,41.68315501,52.66135615,77.47768177,53.43372954,37.90528048,47.64486721,27.62799963,40.73806077,20.98459645,19.54725765,20.98943649,19.12979628,21.31306575,18.1794538,31.72502219,34.86458789,68.18643147,57.70046961,29.56957757,40.66801992,28.14370074,115.0985984,79.59996197,79.1335986,77.07158567,68.38822971,56.13310035,78.2801435,62.67466328,39.94882752,22.18285486,27.47211074,42.65245936,38.33574279,37.88638217,33.98657273,35.00565039,34.85554441,50.35310822,24.6176903,18.43373761,23.16924617,37.13442834,40.40713457,47.29134082,32.32098367,36.3129564,27.7779565,53.80530879,32.0401494,24.16479347,32.96078014,59.67008904,51.18522195,31.26253227,24.28493545,61.61869429,47.94476351,30.47643321,36.69042215,108.701533,84.92532018,95.44060917,71.27452036,121.8401165,109.7494613,84.46996839,53.84506004,30.87310539,28.99587025,55.6424875,50.39420153,67.64459834,41.56512949,41.35541563,35.76967404,45.72691252,63.45008259,36.87152,41.38383359,32.88669112,54.02025043,59.62355797,31.98251768,35.98814337,31.67410086,25.49558111,19.52346513,44.9223767,46.20776713,61.03554736,48.01072223,35.77281137,40.39819482,21.72711818,33.06228239,59.86380778,38.88282525,48.74699323,76.56519078,43.41623342,41.29574014,35.5918017,30.02233375,39.24234104,29.74825674,39.11690112,47.28698378,28.27754305,30.05380383,27.02770883,23.58012785,50.43323866,55.17841776,40.91878502,47.74086881,46.82988742,39.9870598,49.56012658,34.18934374,39.69349762,44.49940756,22.79518035,21.09875711,55.83411909,89.29698153,37.15000361,21.51025038,47.7695228,36.91530149,26.01068963,26.98668603,36.435546,45.47245203,37.99008033,20.27160495,28.99963337,22.01034084,26.17841416,33.76071444,20.12391483,22.31557055,26.3072533,32.93229318,22.64864813,25.16751097,38.19064457
7910,0.14118707,0.111701414,0.134911625,0.145301044,0.145534239,0.168933918,0.099118312,0.114884427,0.10354894,0.114036951,0.107490828,0.084938935,0.100836281,0.113862911,0.109893605,0.108085373,0.088206509,0.094111293,0.07488607,0.078690219,0.104554992,0.132330238,0.109341702,0.122280743,0.105098375,0.090361454,0.105288001,0.115042946,0.166523261,0.227174941,0.246395364,0.289463944,0.310722776,0.263853907,0.147404998,0.138004716,0.096489246,0.12364851,0.137537339,0.144186793,0.15168352,0.091811488,0.322390665,0.220249237,0.186359177,0.256388243,0.357037918,0.302228733,0.189664926,0.230498499,0.183808477,0.21298649,0.159811317,0.140913584,0.206614121,0.309099859,0.192545751,0.360235579,0.240959016,0.111937236,0.166494353,0.171826295,0.146910421,0.165353828,0.184145932,0.139873578,0.110861,0.198663548,0.206364674,0.220022411,0.348422795,0.425438768,0.191661959,0.161956482,0.180581586,0.165334022,0.17019165,0.191540953,0.176812712,0.159054054,0.151465796,0.182740364,0.174328713,0.152530442,0.157612227,0.152178293,0.110143917,0.169521062,0.09188901,0.101018398,0.071647519,0.096561395,0.087296264,0.094807616,0.078762037,0.123040135,0.091317,0.08200678,0.090334833,0.090492351,0.139534841,0.079020065,0.091286454,0.108990167,0.088039326,0.055482617,0.08581446,0.102838647,0.100079154,0.082926225,0.08461385,0.088598512,0.052588015,0.07528547,0.061566777,0.075177141,0.097594796,0.094786948,0.079254342,0.091752031,0.096251425,0.057071542,0.104556051,0.07397483,0.063651699,0.072658975,0.082712878,0.08983133,0.116522054,0.199753314,0.089863616,0.099345391,0.09009186,0.085985647,0.081708399,0.096467771,0.090532055,0.103323616,0.10047859,0.0978548,0.091491681,0.09514637,0.073575976,0.099067973,0.099623655,0.064913804,0.077920273,0.098594702,0.107608977,0.099415167,0.08714338,0.094900311,0.062524878,0.062922409,0.066600833,0.070830694,0.066810481,0.075526062,0.058536439,0.080408051,0.082922191,0.106379469,0.092433936,0.104079268,0.090551079,0.099598525,0.098897885,0.100982787,0.10234105,0.095311413,0.112922223,0.093885361,0.109704141,0.098169398,0.060705574,0.076331703,0.05310522,0.067893613,0.093360154,0.105150217,25.77584756,37.78386676,22.95954362,20.64137594,18.46277875,32.8809313,30.59801485,31.92274531,24.39425436,27.34177635,34.63016121,34.33619103,29.58462394,29.69321821,36.30942879,28.33254445,40.65462123,27.23899875,20.85193744,21.82516376,22.73506416,27.83073906,27.45479648,29.61165423,33.04780751,35.09216296,29.59240901,36.34029548,39.11896102,35.95823918,45.84739763,25.78748048,22.03073652,21.83904664,22.7289292,24.44047776,38.67044334,32.64356462,28.81086289,31.09458428,29.78741442,36.05249428,30.07586665,47.01514471,44.96196091,20.54990752,25.0382473,22.17555129,24.41371079,27.93670331,45.0924209,44.80406134,44.23798973,29.29804212,38.24164426,25.34759522,36.28149273,36.18855222,40.08036211,51.40860973,34.54606578,32.20658086,31.4824877,39.98403764,35.83540954,23.04076739,31.59175289,30.17032702,24.81780904,54.03434805,35.72983985,44.01949162,35.33288372,26.38754431,29.49080622,36.74567927,31.57353981,35.37530462,33.84347205,29.93742893,41.55180614,44.35179419,27.76016715,29.63491526,35.31871181,28.66543728,19.12282331,47.32695117,46.25386222,27.06064368,22.73741759,21.56531059,23.9039095,36.17047474,38.25708303,38.00900769,33.0973715,35.47853859,28.41633133,20.19925711,33.50709422,27.60392838,24.22926595,23.31758524,30.10826013,34.76213469,37.6799408,42.59744415,34.15541513,29.13711327,29.44967189,29.74748051,21.40557885,26.42632178,30.24320184,38.43133129,35.44171847,31.37087306,25.17283229,23.22011591,28.3368678,19.15691644,33.32772563,33.6129876,27.46837232,26.42726897,22.02272631,27.61913188,36.54412071,44.89022188,24.47738921,27.07713473,21.33767042,42.33997859,34.43060597,29.41136438,26.71319472,36.37423794,39.23500335,28.38415144,30.07676201,33.26625889,37.07944658,26.3968499,32.61552098,26.0169502,25.33316189,29.41133768,41.01111834,36.01369972,32.74160224,28.2205709,31.0364437,37.79398224,43.54541742,24.59453677,21.21588802,18.51986197,24.23268798,26.62789401,29.68613772,34.34273958,30.65839708,29.31590684,24.61774696,32.56798951,50.65881493,27.0907653,23.9199521,35.45384173,31.51870734,30.99222287,24.98440581,29.43709296,22.55942773,26.67874078,23.4516353,30.4398347,29.99538458,27.44401242
8215,0.133180065,0.133754071,0.152399201,0.170697627,0.137249576,0.120795743,0.14646967,0.102431386,0.130234746,0.136326314,0.136479399,0.125381295,0.128383627,0.130955587,0.153934857,0.132219666,0.135208707,0.163710241,0.139986715,0.130823625,0.12539678,0.15904873,0.155825095,0.131400155,0.135480309,0.139521264,0.141233993,0.150207497,0.153747526,0.134985618,0.128925455,0.124155344,0.156846156,0.126742752,0.183230934,0.203190537,0.162853446,0.154850722,0.182986214,0.148345293,0.236196861,0.161143758,0.134910937,0.145904728,0.144425489,0.151845356,0.18812708,0.185430972,0.137307955,0.168051329,0.118539628,0.118669775,0.198643182,0.172530839,0.16232119,0.169617633,0.133657534,0.148723955,0.190758578,0.17720872,0.152296726,0.195968162,0.171571289,0.175125497,0.157621822,0.180774517,0.132985294,0.165480606,0.134141838,0.174505376,0.183044672,0.15939953,0.155338152,0.182748971,0.120375322,0.182616101,0.202740756,0.163555188,0.165992846,0.168419673,0.153808706,0.150092844,0.132065544,0.143098442,0.161229422,0.153184777,0.143336128,0.176175955,0.170223736,0.164358268,0.131017791,0.114811752,0.133154381,0.16034265,0.15678203,0.164880622,0.162497073,0.1386383,0.191452209,0.152643543,0.143885892,0.167337209,0.146883527,0.183450581,0.127716963,0.128146766,0.129798423,0.162710199,0.149879481,0.190765256,0.081438574,0.114524511,0.116824161,0.094697861,0.064363112,0.084724064,0.145484382,0.210523454,0.146954578,0.082014458,0.178903418,0.13013119,0.20272583,0.161839979,0.186382457,0.16043301,0.129032189,0.168680351,0.136489765,0.064240066,0.157579027,0.20006353,0.174957045,0.210328208,0.185543539,0.222667629,0.204587544,0.197868083,0.198600596,0.212122202,0.177221277,0.204817604,0.19010421,0.13724619,0.219978485,0.193671334,0.201142436,0.105021188,0.118854405,0.168688831,0.206083815,0.205564181,0.125713709,0.073064446,0.143663327,0.158774882,0.161344557,0.167432944,0.168454499,0.140916229,0.110773304,0.188517339,0.224344791,0.22475737,0.176931036,0.202820596,0.19782959,0.213998062,0.20128677,0.212611947,0.223564551,0.216669944,0.230510695,0.222124845,0.198981957,0.199904515,0.220408761,0.213072388,0.216738487,0.203863116,17.43341953,16.98219889,15.63466574,27.76305648,19.40816586,15.08127274,16.90451365,14.21244197,16.42507831,17.29869117,18.56812529,18.57863563,18.21567695,13.93543381,20.39094427,16.89667025,18.74254433,21.31450819,23.05647603,19.1891707,18.58588898,20.18869331,21.04453191,16.96842643,17.62400639,13.88925795,18.88056358,14.33886821,17.37542205,21.28117025,22.13312101,20.30558702,21.71911155,16.31176633,33.3985288,35.646954,20.60499137,26.74494367,46.60472233,55.84157511,33.67361275,18.55702912,20.76009855,16.87325319,19.54752818,14.37090522,50.62582616,25.60248206,16.83249888,23.22851387,32.37740249,79.23917828,32.82137168,27.21572196,22.00779232,24.26033031,20.85285983,20.53831817,24.76304908,19.3799357,38.41346614,28.08156634,23.13052007,20.35814666,22.70219988,27.66237967,20.07185436,20.01657615,38.61722254,22.29665448,20.71362032,16.66216759,26.74052378,26.68218812,19.83370275,28.15311923,34.43270992,16.80199297,15.05642766,16.0329009,14.85627812,14.23210176,14.16665062,18.49231107,21.31293643,20.58612686,20.59689177,14.64235258,26.42376751,21.4785634,13.94642788,17.28277292,18.99416373,20.42806405,18.44248907,27.10684576,17.07726223,14.20805916,26.48930278,14.13336503,17.89358286,42.50318417,36.54758722,32.91856434,13.93537,14.09965705,18.6843959,20.79501022,19.82558183,33.20611748,60.04568684,62.19081298,66.25534568,44.14352359,100.5207797,65.75935537,57.56425026,23.93310612,50.13825965,57.56857549,28.94106654,38.69805304,34.50290654,46.68617434,46.73786937,34.54797482,93.32672258,48.89271824,51.80518566,74.11003297,39.42313973,31.58749169,50.02454588,18.59129651,35.74657146,27.27662407,17.54021174,37.46485634,26.03137602,26.08837061,17.21662665,24.3204349,24.10978326,50.92319127,43.2929035,25.39634311,30.93168288,69.25407453,47.18464924,47.46768209,22.2249311,22.45482058,37.54744235,91.57345689,55.93588842,51.04955645,45.33875496,35.90064997,43.47418006,43.94515929,44.02875219,29.98207612,39.63550415,37.87761093,52.32912394,18.21302734,24.96627408,19.7952378,16.05601357,25.9707032,17.11939279,24.87408926,18.4791012,22.7358834,30.6024669,26.45482598,24.22162211,28.35491345,18.19411987,28.85841062
8219,0.185750775,0.374345979,0.45236086,0.360489425,0.180363489,0.425305653,0.336354825,0.336191219,0.445622522,0.549193349,0.516062099,0.413299799,0.509193218,0.353139602,0.505415842,0.271900605,0.462373759,0.711480632,0.686046899,0.466301523,0.342296385,0.483882292,0.585493825,0.194994434,0.195222443,0.410783309,0.318176145,0.338635514,0.38183839,0.376790553,0.335927009,0.542741917,0.34497664,0.345196139,0.429318446,0.414661347,0.323462162,0.365804144,0.351319182,0.352477756,0.328623334,0.315723494,0.382638562,0.357785967,0.164545705,0.381000436,0.353658772,0.325997849,0.359701373,0.312539727,0.366613807,0.297409233,0.307399155,0.288536735,0.2842114,0.32288079,0.31296755,0.297348456,0.315385203,0.326781943,0.342104506,0.30954774,0.281064138,0.326022106,0.376621083,0.509751475,0.322517491,0.361308744,0.412684166,0.294016798,0.318024138,0.419931966,0.347328334,0.364317641,0.306017838,0.224460385,0.306826028,0.158175055,0.257366443,0.387478586,0.261969937,0.314455293,0.306801406,0.403319747,0.272730523,0.407750022,0.331257159,0.368178386,0.337630349,0.165797653,0.142452457,0.360751714,0.345270611,0.320445315,0.305028203,0.359810371,0.357549985,0.273964022,0.357915615,0.291477143,0.330860987,0.260425671,0.299203441,0.309058263,0.334637796,0.325325511,0.295373905,0.202436523,0.202634886,0.179007713,0.321676712,0.339328957,0.309177707,0.292866356,0.323691984,0.303215789,0.352590335,0.279049497,0.302103265,0.303953564,0.2951215,0.266646255,0.270596324,0.323656151,0.343878813,0.31328725,0.33749707,0.315263978,0.328493314,0.269082039,0.314118517,0.263051648,0.155698466,0.291485507,0.153168893,0.178481212,0.319734794,0.238783208,0.300707639,0.256406318,0.224324507,0.104667298,0.286395478,0.277746856,0.311418257,0.312070227,0.324628326,0.247790632,0.161715285,0.216310022,0.25664329,0.357074886,0.275499873,0.207353045,0.267135651,0.265654392,0.248858468,0.29237493,0.285688332,0.313676976,0.291391799,0.27321881,0.198280338,0.157244882,0.15330279,0.206226311,0.236132505,0.296051367,0.354121385,0.244889713,0.272968028,0.308689767,0.305288566,0.269662597,0.333821819,0.279244891,0.328909664,0.263001117,0.311968345,0.249677969,40.50941541,31.13546121,20.74908669,26.47700656,77.05496575,24.47894557,32.46484378,32.19990107,21.61219497,27.63001503,19.41755592,17.12136167,18.60749573,31.57578758,19.1229313,22.76032596,20.27280096,22.81818987,20.2371982,18.68600024,21.88707626,19.62819912,24.50869252,38.18346613,52.71326115,23.2710791,19.56625159,20.53511267,29.17911549,20.7361046,37.24031419,30.34065245,23.83867274,22.85101172,20.59964165,22.21424642,21.2286139,27.81661744,28.26080004,25.90226536,25.41576831,20.99447013,29.85364179,28.01366108,32.10742639,32.67758918,49.6205332,50.46581741,19.27545048,28.63445095,24.984268,28.2735209,28.53505397,20.78337559,32.30474953,19.86659479,20.57845021,27.30586313,19.27772564,21.9074158,24.03710319,22.97442607,27.13009365,26.11930261,24.41193307,36.92600444,24.20274364,21.08884882,19.70083112,24.71504835,23.11517012,21.50846464,20.01512173,28.64920595,33.606835,63.60177015,27.98060643,35.60432884,62.43373668,20.14160598,20.5466958,26.20856242,34.57228813,23.74580244,34.77580054,48.66786711,21.46024898,22.12161826,33.04933013,45.61170606,82.59992335,32.27391811,38.12130531,26.87736257,31.70169042,21.5853214,24.03172526,35.94563074,24.28423566,30.48338389,28.269079,25.87742511,30.40461706,34.30716145,42.81939859,24.08509216,27.10089395,37.10694824,65.17563504,36.94157501,37.73815334,27.0976298,34.71295531,53.51619944,37.36722263,23.31060347,22.4617131,19.12339957,24.30033349,22.91799793,24.4867075,18.85400858,25.08221004,27.67984179,24.65023884,34.31232356,22.45819767,51.00566752,33.04851709,31.11269153,27.93047827,34.66146639,42.54952871,51.55607667,87.84936551,55.4544122,26.6128398,41.44503753,29.10936766,32.69350071,46.98824303,110.3158363,69.95071725,28.31565218,24.76036597,32.67460899,24.51109693,32.51731624,70.57407995,56.05484982,33.36685442,30.56573985,32.11310878,52.38413993,25.64224335,19.39494793,31.9616445,33.85910208,39.46305464,28.79696642,19.94296071,21.88124662,33.51488712,98.90409046,80.52698484,57.02536947,51.43232666,23.57146881,23.20227614,24.91593391,46.52942897,34.96008149,34.41525653,35.04516545,23.40175871,25.76088443,25.40854749,19.31572079,21.45674103,17.38561757
8378,0.229364632,0.215373824,0.220124955,0.240572302,0.170235502,0.249499044,0.166387023,0.217783094,0.192421661,0.219707333,0.246261849,0.17281932,0.23972423,0.261161294,0.198997939,0.214709207,0.208218907,0.245875718,0.274561555,0.229935719,0.230162322,0.224161737,0.231802857,0.213502347,0.186980044,0.194516257,0.217822215,0.224067805,0.200009657,0.205458622,0.225810869,0.226947561,0.238327421,0.224767612,0.201774878,0.22901304,0.292532692,0.378604269,0.218843404,0.172462574,0.179119888,0.196360552,0.207677162,0.169843119,0.189376169,0.187350306,0.186241002,0.20138154,0.191058711,0.181704795,0.164584225,0.2127059,0.200938213,0.178503656,0.208559982,0.172414909,0.181889699,0.170677771,0.168557109,0.149047812,0.180855976,0.186771769,0.203569553,0.176558359,0.204839401,0.133091257,0.188641389,0.194193802,0.162728701,0.176171498,0.172082905,0.179677817,0.171812895,0.173322082,0.152918386,0.173914732,0.168811147,0.192067076,0.207230963,0.144706832,0.185841694,0.163461588,0.165002147,0.195733767,0.16177997,0.179321058,0.164051833,0.149858289,0.16088449,0.168863042,0.186704907,0.19171601,0.192629194,0.163112974,0.174631631,0.164011917,0.156724661,0.157890311,0.182533944,0.173029058,0.188403083,0.190961769,0.156580755,0.265951522,0.296603341,0.298118699,0.276996992,0.256584863,0.241645966,0.197008662,0.198943428,0.198025142,0.251330772,0.216435071,0.228563304,0.25118711,0.204128113,0.223080937,0.236053085,0.200483169,0.17873891,0.208070908,0.202172398,0.214221937,0.215285153,0.221676047,0.223902711,0.205869814,0.205366038,0.207640428,0.194178344,0.166924852,0.212733976,0.236717681,0.214244516,0.18028606,0.218266331,0.320316892,0.236314395,0.218736162,0.288348225,0.276143074,0.263780824,0.272783133,0.222823012,0.234188306,0.223665865,0.207029487,0.194750493,0.238279894,0.21412303,0.229463779,0.2372962,0.212509192,0.203436616,0.193936988,0.238542513,0.200781271,0.244270105,0.207874028,0.202425172,0.243996128,0.239425097,0.272424332,0.236289134,0.176153066,0.193319167,0.204675449,0.186316828,0.207270967,0.260335072,0.214871556,0.187707819,0.237690809,0.173194341,0.200815523,0.205852493,0.167212224,0.187395076,0.195309033,17.72824554,19.57356195,18.74234903,17.59015448,16.03646015,15.90754031,14.93889599,14.3859859,15.23175909,14.71718981,22.64911252,14.78144692,15.88964411,18.12355342,16.13557381,15.67559002,15.37425355,19.87728122,17.00627359,16.99656676,14.61937836,18.9580027,21.57315061,16.15477615,14.40077711,15.82617288,16.56054808,15.33951388,15.74443107,14.97421775,17.65813991,15.7032572,16.33324899,15.55300547,15.035111,16.81029044,16.21240479,16.6997566,14.29149216,14.35980253,18.03397273,19.6304687,23.39008278,18.87734499,21.94840128,18.54511049,24.75231912,17.02965517,20.64556018,15.51146536,18.07562515,17.51260477,15.8228546,15.7957906,14.62848908,18.39217047,15.21202309,18.71516818,14.68524813,15.51268702,15.00253567,15.4828787,16.32237967,17.84848967,17.60634484,15.44124698,14.86830933,19.55528802,15.16998004,20.45996477,16.17099785,14.95681108,19.23885711,15.8353165,16.21887527,17.03927521,20.04997302,15.98644246,20.92109995,15.9777903,18.72456945,18.30444209,15.65882836,24.04128287,16.64286777,21.77081362,15.7166684,16.20014109,16.55567346,18.19923901,17.7157736,21.73691628,16.86573492,22.37754966,17.6895624,17.35985403,18.42157056,17.86768973,15.70028506,20.84640588,16.47652518,21.88297333,18.30955351,30.43946806,20.41745463,15.57666592,16.58919766,15.81682778,16.55919732,15.59816371,16.94684305,15.45848584,15.20008887,20.05311931,17.84928987,17.92208485,15.2403178,15.15295556,18.41635178,18.77388682,17.51532944,17.02272521,15.74623729,18.39803391,18.86588608,19.37713257,18.28574905,19.08802556,16.73076606,22.15169096,18.54755323,15.67479937,16.41528422,22.79539094,16.7514472,18.92425852,15.80035294,24.01923189,23.14298041,27.90551885,16.40667867,20.12041594,17.14264072,21.47698616,20.12625153,17.82088219,18.74494036,16.4057195,23.47265943,20.023092,17.53090181,16.6695411,17.07943433,16.83418949,15.84364617,17.90229483,17.84679263,33.18655437,26.19711042,20.48770494,16.07968671,19.28830084,16.92136728,23.93532314,17.57890301,23.62834845,16.093099,21.72050916,17.27501015,23.11261506,15.72970464,14.34021024,41.13905502,16.09835156,28.12219564,17.05300263,15.93145235,21.27652994,27.4365127,14.4149801
8405,0.163880951,0.20768882,0.196246394,0.193180165,0.182488572,0.193472176,0.199077727,0.207180638,0.197898312,0.20254924,0.188035846,0.195216585,0.191024569,0.221527658,0.142527964,0.131762742,0.155793497,0.208805637,0.211523711,0.170576005,0.172822437,0.150248715,0.177510631,0.190975098,0.143884607,0.217120049,0.197116582,0.128967504,0.216640382,0.230931871,0.2134279,0.157993373,0.131128309,0.14961713,0.184791681,0.180580286,0.162464767,0.216915959,0.15377794,0.201241733,0.15324612,0.189839036,0.169086478,0.199160094,0.196203209,0.19076643,0.205850403,0.150215857,0.154425889,0.150569203,0.215098787,0.188703352,0.179505604,0.205340797,0.234498783,0.2357957,0.181065485,0.213709392,0.173998564,0.193851354,0.196901504,0.188661446,0.195103438,0.176965641,0.145722939,0.14749949,0.141615451,0.230051793,0.228965537,0.184899957,0.197373938,0.231360857,0.200948267,0.228680503,0.180921205,0.236685591,0.207462546,0.190512454,0.234203745,0.206877894,0.191256514,0.158609229,0.117458755,0.112449798,0.152641708,0.218193884,0.227944507,0.193289538,0.211411471,0.187749875,0.201825827,0.208752601,0.198127319,0.211757816,0.200759047,0.211853594,0.190593594,0.198914049,0.110497237,0.110067266,0.138843864,0.187278857,0.213689024,0.194033495,0.195926663,0.225479438,0.210227284,0.177453195,0.189791887,0.192763492,0.193356788,0.194131229,0.193190797,0.195355256,0.121654106,0.102495434,0.122125956,0.194309529,0.190783135,0.205949382,0.211708284,0.197008262,0.216959823,0.189202418,0.189382775,0.197451369,0.186583633,0.187133179,0.19391177,0.191022454,0.139074428,0.106466032,0.110781993,0.186155408,0.212706844,0.20178867,0.208947161,0.209721984,0.210500991,0.211706289,0.20866022,0.218068342,0.18369606,0.194806126,0.218311523,0.192800935,0.188045485,0.140729721,0.110384715,0.13249773,0.231531423,0.197087887,0.184939982,0.202804023,0.177912964,0.217957394,0.195111987,0.215134239,0.189854438,0.184893403,0.206914123,0.194829442,0.193969989,0.165209462,0.108741581,0.102046531,0.134549307,0.192724335,0.192464356,0.196845369,0.215248314,0.21312438,0.209575555,0.191788447,0.187864325,0.197745198,0.198085135,0.176376887,0.193686042,0.191791822,58.65997221,58.03344366,56.46447899,58.45654055,55.465098,54.84985909,56.92716244,56.60249833,56.53701009,56.88805881,61.09695048,59.88840557,58.52005156,57.51096639,58.69764399,59.010436,57.1618559,64.24418813,56.79567407,61.02234833,59.70505437,61.1944822,60.20783551,54.26688502,68.67638394,53.97118563,55.46262367,56.46257438,55.09886315,57.58628642,55.81750601,57.55158277,60.71669521,59.86049668,54.78840988,54.84663399,59.36204476,55.96165928,55.85349666,66.01333492,63.05597711,64.94794595,60.66848401,56.34504644,57.81495521,53.49050745,50.66942453,60.2735747,59.99853575,67.41184579,59.26287412,53.71084674,61.48572332,61.25728032,54.35747489,59.51692526,63.47749039,54.19261531,60.02802971,56.27540484,65.38283073,54.77556707,52.78876561,57.44038863,59.81142848,59.08867951,60.44492353,60.49739224,59.08733649,55.54735693,58.40838035,55.68114951,58.02229246,53.52191037,64.85896937,53.32396508,55.57736898,62.63548109,55.36080607,53.12565655,53.92888494,57.70357852,58.4625376,58.03570854,53.95337926,55.70471949,53.24681064,55.76398455,53.61939691,55.35389789,56.18834559,54.79281848,55.05031187,54.68268965,52.63199502,54.64211236,57.25694663,59.80643411,58.77354899,58.17097775,57.80648744,59.04877986,57.46575158,54.52399603,60.38163679,54.25463572,57.53012616,56.45657477,53.06262148,55.69975659,55.18690604,55.74886408,55.86541133,55.21620564,58.3728384,58.34528387,58.47629546,53.64045887,57.44824667,57.12840339,55.93213619,57.54147132,56.1940559,57.98855663,54.25963181,55.81488214,53.92667462,53.91971762,58.34796169,54.72997341,58.25884525,57.75982426,59.6355606,53.7305245,61.2281733,58.59534595,62.29720812,55.68254172,53.17323924,56.22309454,60.27006493,56.77761903,55.73759856,56.14797775,51.53938204,57.33190684,53.25006127,59.16649156,59.20681762,60.12993808,57.96611621,61.15053582,56.84925848,60.02318876,55.87958893,56.56062464,55.45395182,55.42988771,54.80494113,55.91229028,57.80554636,58.56601677,55.28400133,57.26395256,57.29012479,59.7172818,56.08180923,54.86579273,57.56847937,55.93994411,56.06016755,65.29740055,59.44109656,59.79270603,54.89259757,56.42391309,58.16524598,60.4508291,55.83911056,53.1683717
8434,0.242596638,0.170271933,0.225825353,0.271583214,0.224346917,0.217471248,0.250967464,0.212715445,0.238612236,0.248934758,0.247681398,0.211265454,0.246667827,0.216420606,0.242226744,0.256512024,0.249584475,0.237072366,0.267006909,0.237776372,0.21159435,0.249943539,0.248184625,0.24034585,0.235327229,0.223654213,0.229298982,0.228871429,0.238841804,0.236466956,0.229710254,0.246901911,0.249360946,0.23691612,0.227671835,0.230947401,0.207861844,0.226784709,0.219144935,0.214828687,0.227765941,0.224262568,0.217601161,0.232909241,0.240372597,0.081790674,0.19375343,0.199148993,0.191149918,0.180730937,0.19212605,0.183783606,0.188201039,0.177282549,0.20512803,0.105054655,0.188248618,0.1215008,0.149769002,0.148952515,0.158173364,0.143757032,0.138643162,0.150830425,0.197578621,0.179942623,0.170520717,0.192813021,0.180343476,0.191401674,0.180231029,0.195069005,0.162905615,0.198836064,0.188949859,0.188384913,0.191231431,0.185254646,0.185713543,0.182555804,0.157995552,0.192892081,0.172230527,0.188187697,0.172061936,0.177958868,0.183266563,0.180586666,0.180633492,0.175841436,0.16113767,0.188304163,0.193503365,0.190564831,0.166816817,0.201095174,0.173558196,0.188654693,0.169758903,0.191785251,0.177473266,0.199827908,0.168429496,0.184285211,0.20604105,0.200626804,0.19578103,0.197658656,0.20863876,0.181035588,0.202426009,0.205345705,0.201089921,0.198900971,0.18184513,0.218883031,0.184249062,0.181753993,0.190916276,0.193957994,0.18286444,0.203833859,0.195197652,0.188900412,0.18840312,0.19542299,0.170609219,0.17256442,0.206333927,0.197606387,0.186890298,0.147566091,0.193151666,0.191218097,0.145664684,0.198180542,0.224183493,0.232877953,0.326903822,0.292476949,0.151572577,0.232733154,0.225017657,0.222898126,0.227940154,0.261173068,0.210507416,0.097874431,0.203001482,0.208640033,0.178830325,0.174108564,0.158190969,0.216847359,0.160810477,0.224457393,0.151821261,0.234935454,0.221794942,0.226292909,0.230541779,0.257238068,0.225485903,0.250787114,0.227973453,0.227397555,0.234324049,0.251838853,0.240794388,0.242263795,0.213067424,0.144144526,0.067137397,0.037133839,0.148710379,0.213035746,0.21345407,0.192032842,0.182677281,0.138552432,35.98366883,65.68961,62.89017161,32.148185,32.97827889,32.89186355,19.27614468,27.62374893,31.86810877,34.60109458,34.98958927,32.01206565,31.47593,20.22957354,25.78164132,37.57456096,22.55307606,35.75248086,29.62497555,34.41749933,34.01353291,34.59700761,44.61685222,26.47525828,21.97030189,22.72529484,35.47134181,25.58225392,22.59215158,22.63855878,27.56865111,21.56406654,18.92753222,26.71916325,19.17297614,25.71924047,21.1516402,34.72598659,26.08753741,30.02088817,19.17862647,28.28438476,26.14897052,25.86561874,23.93440468,71.1515296,52.82955585,36.20840589,29.58897019,35.31099323,22.03291426,28.23539504,38.70991952,37.33291376,22.82911422,64.35127217,53.38606516,93.00794693,47.35455126,48.04554114,59.45018386,68.97403276,42.69756248,84.64308235,56.61318121,49.92973994,42.24020373,30.31812414,30.06720511,26.28469627,22.81606588,26.49891203,32.89742516,26.90724203,30.05609189,26.60258245,24.5587279,19.94657346,22.68903505,30.03786076,40.81191071,27.31318648,19.73457231,29.3893481,21.86618179,35.52364556,21.79107532,23.47761254,21.28023832,26.14947077,27.21886837,24.56511298,29.10225997,31.92700275,41.00581054,28.1253945,26.56790179,21.38324914,19.53827304,29.29297043,22.44044386,31.87976117,39.15421748,31.64131756,31.95889726,21.52136437,19.17015516,24.60021502,23.8807905,37.94021401,19.76542324,22.10423805,20.53566739,33.79818035,45.40577036,37.83082901,49.02812844,32.29047997,28.68059877,21.03917854,23.30348337,29.83350849,34.10788662,18.87967615,23.8476821,32.68948809,22.36539614,22.62908168,19.29398558,17.98952931,24.92597755,22.72781442,25.78036276,20.77722042,33.57448428,43.58106177,20.40429021,24.39107889,27.09659252,27.36334514,48.91559346,19.39655536,17.84158475,20.89035243,49.84304818,38.80989098,30.57141753,76.33710041,24.41277631,19.92852204,29.90781694,24.2542901,23.01784103,35.07877791,34.02953048,30.41281494,43.23496854,25.70854483,27.83042319,19.48457511,24.6427552,20.01505644,41.07177412,22.9065786,47.17965059,22.45897388,22.6773318,24.1951358,40.30260123,30.58831104,24.04040534,37.55975517,112.313857,100.6927462,80.51513398,39.98775935,33.18385378,32.3651,54.20363406,50.15848162
8455,0.212096869,0.235662551,0.244785113,0.235875167,0.230001874,0.239866344,0.215109513,0.23269513,0.24031151,0.219299315,0.237654207,0.221288785,0.227961061,0.22180108,0.200673895,0.240225114,0.243080344,0.229984308,0.229696219,0.232606182,0.236048367,0.218065255,0.219823253,0.240439157,0.236566883,0.222178278,0.250330741,0.239999789,0.243315408,0.249056083,0.230598988,0.249016341,0.236210572,0.242714719,0.248589147,0.260591849,0.234868852,0.23985902,0.24098807,0.23520779,0.218927963,0.210919345,0.201891734,0.266323872,0.184825304,0.272807144,0.31445622,0.315859734,0.299170449,0.303171609,0.322044506,0.301527367,0.296666112,0.313361133,0.108044492,0.277785831,0.271668347,0.086671647,0.29820054,0.269744955,0.285798432,0.27893536,0.302764344,0.311564602,0.316276936,0.314307454,0.280257108,0.253977026,0.071198381,0.275173863,0.265844572,0.301561047,0.28249373,0.083431414,0.147577651,0.245843749,0.286701733,0.246312309,0.24818026,0.305945467,0.293658685,0.10560387,0.218665211,0.290546141,0.229419825,0.260707797,0.250638142,0.238955284,0.238773836,0.255397393,0.257671441,0.289573613,0.257865493,0.244949089,0.23078822,0.24684935,0.273529178,0.287480998,0.273747641,0.255287452,0.223813955,0.251517833,0.280818402,0.24236743,0.292766005,0.263403634,0.195327639,0.264421775,0.216299274,0.24554057,0.283140051,0.265634398,0.243245494,0.257531535,0.275034035,0.23334956,0.245415789,0.208011117,0.208542514,0.229791425,0.224482379,0.21463265,0.244776245,0.244298235,0.250519082,0.238936163,0.251954414,0.226788949,0.236826755,0.223743681,0.250655328,0.241938636,0.247603849,0.244852129,0.250821694,0.240887317,0.239899921,0.257547087,0.236872132,0.245270362,0.257006697,0.241645105,0.249481763,0.242297572,0.215373017,0.261829703,0.251138033,0.226229846,0.243879152,0.257246565,0.24289728,0.244136825,0.241673831,0.227457499,0.235927214,0.224496208,0.228308928,0.232312366,0.186922794,0.233338296,0.249448307,0.222016821,0.234857899,0.246986911,0.235529332,0.24224704,0.246770999,0.227898498,0.230678947,0.210093613,0.221239147,0.233233437,0.244524773,0.227700978,0.240705375,0.234889333,0.232621437,0.258751494,0.232179933,0.234909332,26.20278827,21.42029221,27.34622537,26.14538582,20.10584559,23.4920206,22.69447306,20.53255945,20.70924147,20.63677377,24.66932122,21.47550174,24.12268037,20.20981331,22.07977294,22.42149786,22.87940657,20.9550437,23.60721751,23.65298029,21.66690747,22.51653187,21.40582647,20.26720424,21.81383554,23.44799456,18.73978325,28.87283555,23.60640656,20.52946619,25.14978144,18.32541199,25.09057675,23.12776819,20.71696353,20.72872867,23.04037857,20.59609748,20.84425679,24.31712241,21.16636335,21.60780802,36.81296655,23.80847024,42.12326879,27.24924044,22.06989132,20.65986733,19.44534699,23.64438807,26.0313826,26.84981534,22.80837895,23.21683178,37.62265204,20.13610995,30.17468923,67.21908506,28.61251294,23.77715708,22.44015068,21.71240844,23.50104995,23.45739801,27.62459832,22.60813873,19.99809497,25.29919938,83.50101747,28.38319988,26.7641117,18.059186,22.81145097,58.04122835,50.99884902,22.22928795,20.10390457,19.2025529,20.70317828,30.39862218,24.21708812,24.2468667,23.94014304,23.78875255,21.90925011,25.38741094,20.28887324,25.01597528,24.93752598,24.82234613,24.21032054,23.49101686,26.64042559,22.77115298,18.31202757,21.39488428,21.86237267,25.36784532,26.46931857,25.31327128,26.83018673,21.52786199,23.05139649,27.11739802,24.38711689,22.10129495,18.84081518,23.15385529,29.76651628,26.52798231,30.87398246,22.56780594,26.57209955,27.18165029,22.95298668,21.29954486,23.57233878,25.51534674,22.72497227,31.65192889,21.87972368,24.15834492,20.20431832,18.70168518,20.73218165,17.96532008,21.82111502,21.33327148,21.88436227,18.44147519,22.09676508,23.38954402,19.28407598,24.4644627,21.68433609,20.08926209,21.90727481,20.43789424,19.63013916,22.19063053,21.68860584,22.34983023,29.53333658,32.02618374,33.10180458,23.10154684,30.83083099,22.23024145,20.71246979,20.74094458,18.4807908,20.77514033,21.62946315,20.78716766,22.16572251,24.01756125,21.34707767,21.9924676,38.70557221,21.74820984,17.17039778,21.79968096,20.67334374,20.65529146,20.09435696,21.84880244,18.61678569,20.39199491,16.91027502,17.04123833,21.39634874,25.12739016,20.8736804,22.53551318,21.0730763,22.63616756,25.46625529,18.73707696,23.25153877,24.7020989
