4015,0.250940448,0.264858985,0.26940245,0.275275811,0.272929053,0.205695559,0.325481999,0.38531257,0.340384097,0.332606591,0.258437439,0.245321226,0.227898352,0.279098531,0.316016875,0.240355636,0.155239836,0.347331565,0.279554305,0.373572948,0.339203587,0.334904588,0.353048395,0.359205451,0.31943104,0.245671159,0.239351503,0.319261848,0.066589503,0.092032227,0.204705406,0.478344596,0.754211408,0.017303795,0.138658171,0.261213566,0.080600682,0.218859612,0.198121959,0.225458675,0.253420796,0.271852464,0.3257596,0.391432618,0.379674218,0.330241076,0.291551186,0.318851636,0.292680228,0.306363277,0.257059393,0.263676009,0.274831428,0.26557749,0.353734775,0.355918251,0.336716157,0.286481251,0.382148272,0.350796971,0.332036984,0.355606631,0.3229463,0.363746831,0.263998715,0.342159039,0.327186182,0.193452008,0.13568281,0.250056237,0.034872826,0.180160625,0.365993536,0.384294577,0.147683301,0.248081522,0.150171942,0.104472342,0.126964525,0.141481556,0.225012586,0.210626748,0.189190568,0.240696248,0.153837118,0.204135991,0.268475801,0.18589911,0.192337267,0.299128582,0.348803733,0.354722199,0.270808626,0.298829196,0.307734211,0.299553456,0.297636754,0.259453182,0.249343224,0.262079147,0.262793259,0.25625777,0.288935708,0.275518343,0.287988829,0.373004882,0.183999781,0.254168163,0.286412167,0.491934229,0.308592504,0.331854042,0.274246247,0.119562908,0.18742108,0.31715253,0.187866645,0.300464047,0.298041545,0.287396573,0.327321956,0.325236042,0.332085121,0.370648777,0.346620762,0.350510889,0.343638297,0.327175746,0.372535757,0.175560828,0.265558855,0.236542746,0.28666542,0.321250211,0.375117746,0.302831449,0.422067721,0.574128549,0.314684513,0.220259875,0.279014456,0.294319432,0.277670632,0.222560411,0.251677668,0.489621016,0.388354464,0.337480887,0.250478376,0.290870331,0.272696864,0.316664601,0.161355699,0.191707195,0.310411978,0.2942509,0.281839242,0.302826681,0.26964451,0.26173984,0.248807091,0.298609126,0.26510504,0.222121996,0.269859358,0.270768615,0.212944681,0.242892463,0.348316434,0.398088481,0.350437729,0.374793578,0.424535598,0.359828049,0.303494661,0.241741453,0.298161937,0.254460114,0.249008496,0.245941048,12.17887351,14.14464954,5.087784519,9.039131167,14.29036949,11.6866088,16.8646827,12.2425853,14.23874353,3.811846188,4.253421222,8.779590614,10.19515877,32.54357027,9.38840607,14.88021213,12.69607301,12.86377143,5.426626723,10.22229745,44.59946366,12.66238442,5.865969084,4.637044683,12.36171353,16.73263451,16.95814036,9.141249198,14.67823521,12.85809505,12.41224326,11.26489797,11.34915155,12.49057784,12.37361722,10.4681233,10.83185101,14.25327607,10.67365531,3.361526097,10.55331415,67.06168835,14.04663045,12.12803095,115.9698818,6.394634414,7.539994388,1.652121996,8.91059013,12.97745467,9.764399234,11.94367809,50.05434184,16.31961518,7.336190219,10.02106274,19.34073029,9.414408342,5.940093501,12.80457537,12.15304588,69.74243344,11.67944203,13.80388267,0.744698885,30.15838589,14.79440524,25.41363164,11.98689314,13.23916183,2.385674817,13.51006905,14.5578213,10.65434232,13.21176582,9.878050364,13.4244894,16.12423718,11.50933423,16.97240261,789.1441485,13.40440389,13.03821331,12.69932371,13.78698708,9.15313713,14.93548486,14.70072647,12.61184052,11.22927342,15.07411252,9.460161573,9.294640597,11.09326259,10.17671199,9.475444921,12.86361351,13.23207601,9.702329012,36.14842698,0.674958052,22.05865754,13.84953369,9.826634686,69.32528857,13.53019223,9.609395466,9.894400406,19.09042133,11.44439562,10.93093523,0.123143124,13.02830544,13.12979735,7.557771058,9.147833255,12.64807878,17.73306598,6.256437825,29.60243456,113.5991302,12.15543573,18.66490424,10.29785923,57.75592226,6.83737785,13.47368011,13.2354903,7.659173066,17.51380516,19.83025776,11.57171425,14.20343857,3.477985323,13.11543963,27.74681143,29.94332689,13.2157852,14.87381333,13.50138586,12.13140651,8.067220322,14.52113357,12.40185473,14.86256464,12.74178225,33.53215505,4.665096466,14.86281277,1.757076423,13.78111468,5.56437277,17.25029166,12.43988365,5.680782607,13.93922832,20.08824985,12.76707426,9.241569512,29.1210277,12.70749478,13.34378286,32.94596001,15.40515032,27.84271682,10.5107033,14.94704016,181.3071133,9.929756869,12.76567103,5.51150383,10.87680649,5.331393548,104.3457749,10.50679172,15.58537722,3.464647842,12.66813219,6.358621145,76.07906851
4043,0.189521146,0.179006123,0.171436239,0.191084121,0.183918859,0.185155018,0.184570622,0.18623848,0.190765638,0.192757339,0.186467607,0.183757764,0.183093994,0.192148172,0.187010019,0.179210771,0.19046755,0.19674774,0.182594797,0.197803354,0.200255206,0.203868132,0.148891642,0.192312918,0.174607578,0.106833872,0.19847468,0.212817817,0.24091398,0.178790045,0.191288484,0.201708133,0.18984248,0.197123779,0.190068838,0.177695025,0.00219778,0.185974327,0.186569808,0.182248922,0.190167858,0.185813723,0.189688726,0.185912076,0.188526436,0.179309214,0.181173741,0.197377366,0.207520339,0.185194563,0.191982303,0.190237775,0.183780002,0.188004343,0.1956741,0.193513578,0.205215225,0.198612144,0.194140466,0.189979511,0.205516286,0.214209866,0.184675885,0.185635084,0.195896533,0.193580471,0.184178304,0.181880177,0.18791568,0.194618771,0.210534319,0.189808842,0.205821694,0.210989819,0.182958155,0.173949553,0.175017167,0.189120461,0.192734587,0.187382535,0.185858785,0.177944498,0.19775465,0.19114976,0.184702812,0.187257888,0.191878441,0.187030007,0.187905436,0.200957437,0.183400347,0.191748737,0.225714324,0.192644957,0.230407506,0.201001061,0.205078648,0.197134139,0.219349191,0.208682735,0.21512543,0.204161503,0.210426239,0.208600394,0.205958052,0.213609524,0.249485628,0.209192851,0.247792709,0.231887928,0.221486878,0.074696646,0.21670017,0.292358771,0.289188089,0.311840776,0.251784879,0.298712992,0.271594817,0.31009943,0.330249502,0.325449933,0.376035122,0.302490916,0.337365165,0.317090634,0.291633951,0.299209163,0.293386485,0.320172904,0.314056611,0.284411101,0.160647506,0.089536962,0.099123659,0.212330395,0.218193179,0.226398516,0.235720263,0.248530136,0.238569197,0.192654799,0.221887227,0.195724295,0.187272557,0.214911446,0.209347693,0.202758837,0.239095845,0.214025875,0.197051275,0.176915019,0.182814846,0.174363022,0.182821031,0.193192016,0.188309002,0.184664837,0.181273076,0.199716577,0.17940775,0.190564945,0.186465514,0.182439119,0.175306664,0.170205876,0.188006497,0.185523372,0.186290917,0.196824519,0.182147874,0.179953898,0.18651158,0.182429825,0.210582211,0.198172463,0.194413073,0.193654116,0.194039044,0.181191026,17.07483377,15.40597532,16.61663747,19.05069891,6.862975431,16.37741698,17.88384214,8.258144781,29.26120117,16.81487963,16.32601677,17.2779484,37.42695622,18.10453755,15.92244681,33.10543778,8.46924297,16.50034011,74.38481496,30.67668145,14.16675895,17.55545399,12.69128618,72.73289604,12.72839813,12.32480127,20.48210481,25.3740983,16.4427661,5.413246912,10.71433919,17.92959363,17.32088357,11.02524039,10.99491862,10.8699681,23.5950368,116.2835898,33.04606388,16.3424971,16.97353361,17.78926007,5.720415135,219.5908757,8.797294207,17.56805646,13.13306599,15.55225538,18.0376024,9.630879769,17.85524348,17.08842062,9.642052187,15.44133454,15.08466437,17.66082995,13.46390396,12.40798392,17.83358703,20.94355882,15.92813476,16.44143357,0.53867408,31.4900989,17.1612891,17.37670348,17.38239634,1.016734774,15.62739395,18.14340376,17.52388649,17.26559039,11.02248652,10.27494657,21.54676454,16.82411119,16.16354943,21.22779504,15.19637008,17.62368255,29.94324839,4630.985677,15.6625079,16.49005512,11.39524567,16.03450852,16.35762002,17.12256707,17.33146115,15.82252631,16.48384374,18.01045038,16.08225493,30.92169557,14.52838223,16.58679594,16.94504482,16.32886034,16.61487235,20.40737764,83.46744598,16.55180095,16.2039217,16.78865106,16.86495084,9.33263077,17.68735596,0.224654174,7.646698697,23.28137948,13.3392739,2.028875031,12.02834626,14.71752367,8.314285308,17.13550404,7.96657692,47.85839682,15.79390233,15.37348795,15.28092309,12.55639371,11.69358084,13.06914244,19.16119946,113.0798776,16.60100463,13.85584462,17.68812349,18.13648483,3.887993116,14.0764271,7.171848976,3.836049762,12.56264254,17.79637773,0.965224786,20.16712867,16.867114,17.20931914,16.72525397,17.02051328,11.66543172,16.647631,13.64592305,16.30870415,12.69543732,20.45712357,11.78084453,16.48724568,17.59796777,17.94214831,42.16217459,12.03479637,29.1327632,17.74716758,8.910922195,17.32736301,16.97400567,16.75740461,17.34852575,15.13610956,30.84191749,17.30848082,22.29273661,16.96703955,16.68061563,11.28048528,18.76110126,16.76629025,1.504069231,8.210330944,17.95049467,5.087428466,9.29837314,13.7113699,16.70306129,19.10264194,23.95191163,17.55028325
4048,0.265226879,0.268721431,0.271736869,0.271119186,0.293345481,0.308789165,0.300943633,0.371445711,0.427106886,0.352183249,0.411793761,0.672116738,0.729621598,0.774900787,0.515147091,0.31381654,0.314301042,0.293060384,0.289490261,0.30007831,0.313857872,0.342770658,0.322632671,0.319699343,0.383353218,0.425844503,0.508127999,0.480653318,0.15682998,0.290107468,0.290215716,0.273004286,0.277232867,0.253502758,0.28098061,0.273591243,0.383138286,0.318387031,0.300609489,0.273523092,0.261890231,0.239253428,0.258211793,0.286380393,0.280798428,0.274784505,0.282353366,0.265397709,0.287142106,0.256283525,0.287012795,0.270114198,0.289963107,0.287559776,0.307696428,0.289334837,0.28677907,0.266405797,0.297206943,0.272456994,0.273364661,0.324957468,0.507920429,0.355735399,0.338064151,0.265278681,0.215933407,0.226692351,0.250586776,0.18547482,0.282419527,0.234733066,0.289310437,0.39304315,0.480495574,0.421951611,0.206253057,0.224965895,0.21188857,0.273659467,0.2628347,0.263093559,0.274579205,0.248181602,0.250915093,0.251281301,0.251419468,0.221794649,0.248851523,0.248773372,0.245859678,0.250348237,0.255357556,0.143339915,0.175750827,0.207368857,0.19957194,0.244750734,0.215882571,0.246412019,0.20692317,0.233795316,0.430395039,0.591344646,0.312199695,0.536252863,0.439757456,0.21278188,0.278326716,0.291105423,0.279672205,0.304753238,0.248298287,0.284747623,0.29405305,0.263285654,0.283616219,0.282852572,0.294270638,0.30097416,0.295209765,0.294078834,0.279972512,0.306460614,0.294711041,0.301650392,0.285428325,0.27866155,0.297516464,0.279062578,0.286373686,0.266014417,0.271875905,0.284479146,0.249999861,0.286083617,0.27874044,0.269653289,0.233543921,0.242580948,0.279821314,0.266863135,0.279291462,0.266907951,0.256428169,0.274743586,0.290794789,0.274695507,0.284319426,0.27377142,0.26987648,0.258032588,0.27111667,0.284344665,0.236423147,0.237836433,0.237597143,0.218057101,0.228433348,0.254143084,0.225556223,0.194025399,0.247924576,0.280333571,0.272031636,0.247611869,0.266391025,0.240468335,0.238796645,0.223964089,0.210573238,0.235300048,0.246227925,0.226780372,0.219943438,0.233163611,0.22919868,0.206964715,0.236418918,0.211285117,17.77822432,15.20582121,17.94687647,17.66117728,11.41658857,10.47211944,12.77078708,9.901435067,24.05677776,19.33635044,18.95696976,15.71344599,11.42431746,13.06072771,18.33621291,19.7899139,17.88133926,18.2739843,6.297834171,13.56305705,17.74997116,11.53420854,11.49608917,12.06272045,14.84446333,10.03738545,11.25996121,5.946522502,24.5990818,19.27718177,27.47583031,15.40152801,12.28767727,26.55613892,8.520909738,17.85792941,10.63270466,12.05457063,12.80724709,7.346708796,18.32230603,18.15959279,57.08911864,23.00223155,15.1762384,14.37392885,18.46052627,16.13239078,14.39406947,39.37263719,17.79928427,17.75372891,44.25053415,6.562560309,8.690424922,18.05388509,11.51905508,13.02011733,17.94498407,16.86880177,13.41065064,16.08311227,7.408007721,28.88246533,9.620767468,18.05008228,4.607670229,10.67874193,9.620825635,12.03126688,12.90315974,15.06554396,10.44639266,12.67837438,11.18702723,8.328755786,19.66851879,8.641751571,5.291198951,9.333022298,14.19173173,18.77741833,23.5172552,10.06849766,9.354471741,18.51029631,9.641265683,9.393391913,10.20484857,9.10664624,11.92545451,16.14485703,1.514028844,12.80292097,26.43001286,10.46269472,10.21936023,11.51305512,9.801289137,22.99164929,9.264902396,12.61679461,15.71353008,17.63560906,18.61090337,46.57922026,17.784216,16.18276567,17.08926214,18.47045919,12.5982298,12.9650237,21.6253679,15.33045701,14.22767952,19.53687486,13.58664838,20.48191878,17.89679248,13.69951175,17.79762657,17.1960506,18.49291076,21.78519784,16.0232293,5.816928099,17.05872172,18.03588535,14.60915189,48.89591164,18.72043418,17.80278729,12.92651805,8.563263852,18.55392394,10.61485112,22.41473575,10.70359347,30.78833665,16.67485672,13.12141213,60.39375652,11.11798604,16.85119873,17.85037983,17.16150083,11.08764181,11.23779652,19.58306102,9.362306319,13.75393366,46.58941948,16.59748067,11.10629219,17.23920683,13.59075866,13.87592607,13.3146158,11.59538723,30.3017649,11.09564017,10.08858648,17.69721594,16.04496342,19.02712695,18.43532205,10.02744324,9.799103024,792.5768349,11.45147263,9.684231252,9.412746799,7.034303398,13.30749001,9.590131199,9.957683092,9.55546039,47.12571327,7.800731141,64.52553315
4126,0.172711884,0.178952708,0.357036851,0.323216546,0.334507413,0.414296193,0.305575209,0.377385718,0.357374831,0.399033498,0.359988991,0.324634552,0.34466771,0.44086326,0.417635229,0.406660859,0.431302846,0.424580485,0.414215588,0.397805294,0.401959034,0.418808971,0.435343882,0.417372191,0.385514945,0.478482435,0.373374953,0.43858564,0.412872638,0.454592891,0.432946563,0.412612689,0.395353463,0.408096437,0.236621855,0.309858812,0.415456375,0.454400704,0.383188189,0.396483031,0.438084336,0.419894123,0.454754341,0.42068041,0.417496399,0.427509271,0.446866442,0.429636217,0.395251847,0.423160186,0.452105481,0.371979777,0.321979769,0.384289637,0.41664145,0.353975648,0.411186327,0.418611694,0.369954851,0.339884589,0.34026753,0.349815189,0.313957272,0.261889998,0.317963893,0.377314424,0.386770928,0.359366048,0.360776793,0.493724058,0.406304771,0.415154239,0.47433196,0.389394672,0.474723549,0.404303072,0.246889288,0.313570176,0.314096341,0.354258229,0.343760593,0.36413607,0.21563003,0.24497831,0.35464228,0.311061316,0.219465365,0.212598245,0.16810554,0.284838451,0.229775478,0.319551748,0.330299165,0.173744155,0.253411562,0.18625915,0.240526788,0.238980765,0.262858394,0.337747815,0.202139043,0.316548479,0.388954237,0.418710786,0.457758635,0.512531905,0.467884155,0.49180147,0.436186438,0.456566327,0.33008251,0.340593381,0.377308994,0.323310598,0.434016078,0.437207878,0.409054919,0.471016502,0.415592056,0.385310969,0.386937557,0.368165541,0.451968945,0.391326559,0.368339152,0.351308916,0.363938969,0.313575589,0.329877987,0.239054217,0.260893538,0.25860344,0.253190446,0.264997021,0.221697564,0.173729505,0.205851779,0.27360225,0.27723662,0.200701132,0.199090754,0.32318852,0.311033308,0.214170089,0.247589412,0.224856151,0.195060431,0.199730995,0.261534772,0.15036145,0.211435934,0.240121128,0.326303864,0.309095779,0.278305289,0.328486823,0.258359326,0.231703042,0.319047302,0.439894024,0.346777748,0.256487405,0.323350249,0.432133759,0.43889903,0.205674624,0.387526021,0.334007884,0.329885005,0.389015262,0.345732295,0.289505136,0.33180112,0.449426309,0.299481426,0.330540699,0.211672526,0.344175425,0.323933831,0.357455014,8.004797861,15.45197504,18.95767592,194.7305364,14.10370754,8.210157055,16.23607243,77.73057692,15.2023667,10.73357737,10.15643012,22.80517685,11.16166746,24.20626158,5.252813509,9.427928547,45.89378628,26.06266278,5.13748655,17.65808825,7.527453641,5.65253609,18.37957999,9.089814435,2.745133164,7.892860666,1.032600492,76.14679891,8.139526816,24.22497179,14.48486167,49.69064141,13.47641906,18.41946527,28.8788319,12.55892452,17.14654016,14.35946587,5.612031288,13.13207257,6.498155235,4.982299345,47.19619757,14.78294402,97.67097183,18.64584464,21.80032055,547.9268079,6.39088564,0.243925395,19.72934305,16.15352632,13.50598046,14.49844024,11.27961692,9.220309232,9.45207844,6.379674996,8.358443491,13.68297613,10.87278641,22.00171247,7.382721214,15.95456779,15.3253627,17.31789823,34.86472366,170.2008136,25.49572444,26.24808933,99.76903833,11.00846208,13.13189517,15.62017865,12.54314433,6.725941662,33.10009583,9.03356119,9.168483864,23.38027474,12.93722511,5.528119645,9.485128018,12.89514207,1.740562227,32.52882322,11.4241819,11.76985699,14.37523422,12.02593221,3.993933329,6.662678193,4.722859249,15.28467934,14.98408521,20.85788684,10.6489664,4.418553432,10.99537808,3.472354711,7.432274616,5.76250174,1.550634901,26.00352321,7.927584661,12.41340889,15.30376266,1.96954589,32.23696351,12.46253106,16.38638865,9.025174846,6.201900261,16.6805809,5.070452728,13.48161519,41.01431215,10.67080606,12.71762318,7.877373456,7.388224212,14.47184096,8.3903997,5.289969179,13.45593071,4.888869812,174.709571,8.126873571,26.16158668,2.43935065,10.65562761,8.405824919,13.69508911,182.469449,4.895926316,4.493756453,15.63256497,10.33177591,20.68829655,20.29110969,9.480360328,11.78002634,16.83004202,23.41403409,12.55425313,14.73780504,14.86529271,12.97152048,11.79635735,13.44758003,10.40215246,16.1464164,4.95826001,11.70265101,15.36421616,7.734427355,5.417834142,11.11669009,12.26329206,482.8139989,22.61454214,13.10237535,133.4237638,10.09443613,13.02004651,3.303085702,14.99550169,14.237748,12.17949885,17.23142654,11.57117617,9.406417086,14.06994894,16.00919664,9.336968342,15.93766201,9.002324645,14.36526944,14.67657983,8.776567247
4746,0.265553309,0.325403862,0.288692297,0.312010006,0.30760845,0.303460443,0.305068306,0.202690974,0.338308622,0.27827762,0.268254149,0.320472978,0.293096888,0.330253844,0.294603458,0.27924798,0.310253454,0.350683066,0.321733326,0.285784818,0.557597853,0.343594172,0.366348787,0.425238317,0.365226489,0.293912525,0.370208082,0.398117016,0.348161677,0.319900133,0.368255776,0.132158499,0.165641092,0.45621403,0.463329882,0.437972934,0.265692562,0.344069784,0.227926929,0.296724218,0.331186139,0.316372719,0.305405612,0.295741482,0.315348807,0.35301663,0.415560387,0.266986713,0.348085841,0.362969507,0.421596154,0.315350083,0.352479302,0.262302986,0.285166415,0.255087726,0.329512838,0.294627718,0.426748669,0.373485541,0.299221231,0.265667244,0.266534036,0.250256272,0.27316436,0.263069296,0.244622833,0.276170894,0.265621123,0.307352364,0.41741643,0.374733082,0.318588823,0.308757462,0.326862924,0.313258732,0.305517814,0.031519468,0.075375225,0.266102565,0.219326561,0.282849225,0.25388592,0.291672231,0.30357804,0.289847229,0.287488584,0.377468284,0.328111053,0.304398109,0.299079412,0.275164323,0.319334389,0.297970233,0.318554553,0.411829754,0.28850769,0.186819468,0.247663632,0.263176726,0.272097217,0.295003699,0.274669137,0.325828179,0.296475121,0.235474213,0.265049516,0.288364766,0.292113543,0.284462766,0.301347817,0.288048635,0.222875449,0.278353416,0.252058183,0.2993561,0.274634498,0.294866559,0.32634082,0.210230471,0.27194165,0.282196109,0.269663362,0.286255832,0.216722984,0.299332834,0.313906876,0.329622748,0.376909926,0.290402625,0.320878032,0.326632908,0.333832552,0.322378961,0.345528501,0.336222105,0.333878448,0.316914623,0.294431669,0.256760187,0.210613153,0.201455444,0.232310235,0.26944134,0.280422772,0.274533399,0.25110867,0.24658739,0.274256168,0.25865612,0.306981131,0.267769745,0.226486697,0.208305398,0.280972044,0.299934057,0.259566114,0.266581476,0.284336575,0.19938163,0.360016473,0.350390671,0.369034986,0.535041684,0.385859203,0.386647791,0.310313661,0.316359213,0.292151515,0.344713212,0.315368664,0.356402879,0.347846921,0.362442638,0.314949539,0.312830429,0.3452464,0.357027207,0.377240973,0.388402674,12.65067893,8.189904612,9.850969714,11.10212624,8.939956274,8.954829327,15.21021481,16.92169476,13.30841205,11.00082505,91.22220642,28.33436069,48.62945285,9.19218171,14.78113742,40.96174241,11.76590871,7.626963595,8.635408535,13.77104274,21.13767092,15.80331825,14.6955313,0.861015038,30.42310907,3.387284488,8.338733362,11.26091814,6.816562209,10.29776745,24.42072068,12.64236274,12.82862289,4.457221407,12.64838005,15.71683962,12.40908272,8.423315959,13.3207732,9.637705018,4.895060296,10.37008655,8.542954113,9.8075818,5.102593824,44.17867364,7.572359789,19.20369661,9.958761161,14.15554358,20.5016263,53.70751534,14.51882166,25.70262773,13.45776817,20.27832512,13.197097,20.01394641,4.463499927,10.73377806,155.7120323,10.64320469,11.66653714,23.72595757,11.23827389,10.52550756,9.912922298,10.2690284,13.77130867,14.68012577,11.48009418,7.451774413,5.510790239,3.297578282,364.2643009,11.45362166,10.7773828,21.49615275,11.96433219,12.88395792,14.54011591,4.986309422,8.259605642,12.24204548,11.2400863,14.20392924,9.551021376,26.65611355,5.648456394,37.18351769,10.18418989,9.775782758,20.29435592,6.216544008,10.2713806,7.758608158,9.93407836,12.3548932,8.633318797,13.00520955,11.89410285,13.42853388,8.291891383,9.339854992,10.01150266,58.71799499,8.803642039,13.17344023,10.77184736,30.70537877,2.708578596,39.98347847,11.09805427,12.74681148,13.46015279,10.34090901,5.270557688,17.92871911,15.29967215,12.5768012,6.097813476,12.64327164,11.29483927,10.98219377,16.9685786,6.029412815,8.991116929,9.871426696,12.93305436,0.889687244,72.10230679,10.82868902,9.386099004,19.51345824,9.719909194,4.910517164,19.96033188,11.4676744,0.489751327,12.28579634,12.24043876,5.333853904,15.66942651,7.154543632,5.59452403,17.51011122,20.38775755,37.55863467,12.11723413,11.12064018,6.301115699,5.189063064,22.6177293,12.46605613,6.996026482,9.990992544,11.42904475,7.096060196,8.632783086,23.42333295,11.99678086,24.85562362,13.42773281,4.256495081,0.542927809,12.42803387,6.344678002,12.20335211,8.92321304,12.43304514,62.44419722,2.045927838,48.44580358,5.280836474,10.086586,3.135699835,59.25440614,6.727381998,7.687570692,19.86599091
4908,0.133530209,0.140916554,0.160636555,0.127724101,0.114166669,0.133461269,0.130382832,0.12396384,0.116857237,0.130751742,0.138082915,0.14435082,0.130739519,0.121420025,0.121470621,0.225591929,0.134213538,0.133002253,0.128652352,0.144240384,0.148047157,0.131575465,0.144804467,0.13779687,0.147241411,0.140778388,0.139180634,0.142667565,0.142025758,0.145423734,0.136417936,0.143590955,0.146157787,0.141390209,0.139977081,0.143053227,0.152986396,0.148087642,0.146313439,0.145139657,0.160262843,0.156528267,0.157184272,0.148106192,0.186085139,0.158671186,0.172098771,0.186024589,0.14762679,0.178910068,0.178540012,0.213606608,0.169064689,0.138702494,0.127091906,0.131908767,0.138027455,0.121666042,0.138411031,0.130062088,0.148727003,0.136974179,0.181581922,0.206971306,0.139143182,0.123945074,0.139730614,0.119876624,0.139768993,0.14038695,0.156756516,0.173749106,0.22028563,0.203652341,0.168501327,0.11798911,0.125619487,0.125194151,0.132668165,0.163189814,0.127825171,0.148791114,0.152342694,0.135190334,0.157732165,0.221811645,0.214506937,0.141169586,0.129617705,0.115545342,0.158897357,0.167092882,0.251098777,0.274620685,0.162207593,0.10279073,0.142880981,0.140064288,0.155881226,0.206657943,0.196931814,0.157863464,0.164797357,0.153010306,0.152990546,0.170689775,0.123153832,0.177794113,0.204484899,0.204657234,0.192346234,0.153205742,0.166794401,0.182247282,0.197462135,0.206171188,0.222419028,0.146504985,0.154880159,0.143659238,0.141851889,0.194336421,0.361033315,0.161155466,0.098010504,0.142446006,0.131913912,0.133924676,0.169715369,0.097345343,0.092881184,0.08744497,0.099740795,0.103230826,0.101516821,0.115002949,0.105565294,0.092184057,0.090395628,0.116519126,0.095354626,0.093963939,0.101524291,0.090637432,0.086730892,0.086104703,0.094369572,0.086107731,0.091798678,0.100771878,0.093227433,0.08901911,0.087605528,0.097060096,0.085049719,0.087213054,0.086235147,0.108857061,0.119347479,0.099884175,0.093312932,0.098761671,0.125285458,0.171951504,0.092980333,0.086760729,0.092521021,0.11446433,0.106961628,0.116105618,0.111204127,0.104167403,0.508767231,0.221755264,0.114898932,0.145223581,0.151407818,0.132536346,0.129793684,0.131720544,8.093751414,7.252819393,9.903864878,6.264547473,10.61074682,41.5926303,17.72353816,18.15136966,6.694221259,6.808514053,13.48844275,8.741049661,10.72829207,7.859003384,22.2643705,10.1625864,10.87458522,49.31743668,2.292646533,8.361514675,3.718915626,10.23095718,12.11224776,13.95958251,4.021261578,19.8344742,17.49736448,9.43255155,13.19302006,2.971556845,8.70630813,59.02596964,3.94164136,1.970298086,9.921924686,8.968234387,7.975967696,10.59674584,7.272959537,12.88272876,14.57474255,4.435072156,34.24806621,32.58136764,4.067836456,15.92801092,12.47686489,16.11325859,16.15925225,14.01987231,17.49908078,8.930283558,23.0168233,3.717171832,36.88492981,18.11416488,8.656222629,19.35327466,4.234652741,14.4926787,39.54296642,44.45345173,11.0981371,16.26216153,6.431352989,6.945267115,4.323815086,7.961325346,5.269051688,0.445448761,8.11905297,57.04638265,0.944226601,1.352264256,5.329274286,12.42980804,10.18504485,12.55400483,26.03072335,14.18486792,14.2702751,7.965414881,17.38400593,2.425824747,10.59090436,16.13234178,36.03255367,5.798708338,10.81029249,13.37563212,6.617907809,6.685954027,9.289425949,0.633804041,6.661923959,6.224049056,32.04271383,13.4939751,11.82188999,18.24375941,11.89716417,119.5357503,5.149568917,8.631350073,13.45578772,11.7140186,12.50337181,0.848096156,249.6153435,15.28615547,2.836538495,8.211630846,8.169832756,12.16806669,12.23883899,12.77770341,13.89780621,12.36591661,11.98565346,13.71263035,9.051366269,16.81827986,13.73194107,14.18907751,32.06784784,22.42820646,19.51042417,1.49839606,27.91298925,13.2609161,13.86143617,17.31470482,19.58915649,9.922317305,18.29908609,15.71517889,13.06947642,1334.343467,14.55080663,17.30471358,28.09814649,11.12773063,65.2358531,9.772794071,33.45956378,16.45895903,15.14463816,1.891371381,6.295358391,13.23960707,7.023735869,9.843307291,19.03000082,12.25378528,393.2718061,15.2183271,8.996414717,252.9252933,15.45961239,15.45932231,10.94315557,17.70555232,17.56610084,28.29548232,8.861193376,11.32998758,25.79765095,17.33796489,17.7114498,14.86582713,12.59937602,1.687301602,10.39242714,11.93500782,12.61696117,6.572735526,13.67935811,15.1978619,18.77057831,24.11391162
4936,0.151017797,0.154131185,0.159478725,0.152550359,0.157896757,0.157731383,0.154779046,0.156693008,0.148880926,0.163269962,0.150159448,0.158148249,0.150658769,0.154297554,0.155372559,0.14724196,0.159271307,0.159875439,0.162237469,0.153935146,0.161918088,0.163546833,0.14624377,0.160879469,0.146627857,0.159052377,0.154179688,0.158588291,0.165892234,0.15879145,0.153700624,0.154108842,0.183973664,0.165933332,0.179731992,0.180299922,0.166951082,0.167380737,0.168285209,0.164112394,0.162968172,0.172194354,0.15942184,0.163733736,0.164276875,0.16163541,0.168746944,0.164682877,0.162160001,0.165178236,0.153095355,0.162815495,0.153714892,0.165799458,0.15312125,0.169041135,0.159360188,0.162402862,0.154950601,0.170692612,0.169961248,0.163879498,0.1705976,0.154588301,0.157035087,0.164991621,0.170228227,0.157567401,0.154007223,0.165896242,0.15592862,0.159195233,0.160760095,0.162001888,0.156848768,0.156784281,0.146189475,0.160055335,0.156990139,0.16468333,0.154021007,0.15870645,0.153352986,0.150169334,0.144679301,0.161250118,0.1556033,0.162460042,0.141010763,0.156484488,0.155936797,0.151734469,0.15952942,0.151689029,0.15513256,0.171968894,0.154312696,0.153230169,0.156808966,0.149524252,0.144443609,0.155316646,0.155153623,0.150360734,0.150353467,0.157209995,0.155593789,0.155131547,0.150431484,0.147379393,0.153336931,0.15710307,0.140014002,0.137008899,0.155588762,0.147862043,0.157618095,0.143662462,0.150054667,0.153475206,0.1530168,0.153463714,0.155294389,0.136092484,0.145338004,0.149958536,0.145873242,0.152329831,0.162125928,0.152127456,0.157604465,0.149825261,0.139560183,0.144485887,0.149024501,0.146264442,0.157263584,0.144959576,0.155820452,0.143449755,0.163949347,0.159590071,0.161818968,0.159376184,0.151838629,0.146523173,0.149279066,0.143295202,0.151561846,0.15068713,0.146355451,0.148389027,0.149437332,0.151144097,0.211008917,0.182364597,0.161065836,0.176658579,0.151693369,0.156747354,0.163879151,0.169489141,0.159022999,0.151068711,0.152121195,0.184484189,0.257647734,0.298390578,0.305434848,0.269602921,0.281591458,0.276409148,0.297673675,0.274311632,0.279552718,0.26194547,0.290324417,0.275012173,0.264280499,0.144763385,15.88117591,17.90456146,8.131269134,10.45880876,13.2824698,12.83311792,16.51697114,15.83685265,9.340512305,11.58669589,13.72554836,14.75298093,13.98046763,9.6220915,8.559309589,18.8905179,30.68173843,17.22544062,13.05258341,8.845281009,12.90357924,9.571350845,17.31258616,9.750231555,18.09284584,16.64368177,14.75728738,15.21778712,13.74055636,33.99783959,17.83380623,15.7645578,15.42193157,17.26479513,12.59473109,17.13570805,16.11268659,18.06471192,5.517369614,23.25690535,19.9948766,15.41511099,18.7878182,19.48354367,755.4314834,42.15051869,10.6431112,17.63502447,19.25105993,15.75710572,8.866660534,9.000716462,11.48062673,17.81409732,19.33305442,140.1303249,17.65955001,19.34866605,11.16088455,20.46381175,21.20209004,14.06192963,18.52096792,11.85384896,13.51519845,11.90776389,16.96280694,6.730643335,16.91927888,15.46114387,16.98848613,9.248693767,18.19460762,10.42766782,18.02202081,10.69066323,18.05287964,17.71937607,15.31610795,16.70166757,12.63749703,15.20602117,13.32717281,17.18453607,13.1068978,13.81722464,24.38612804,1031.903625,13.48295762,19.97877999,24.1321985,23.84850983,11.81222477,12.04398547,14.64753603,16.43592408,4.329259917,8.701283444,11.38638318,14.86943113,14.28399208,17.87602951,19.02831991,13.85089493,19.67250006,18.19359363,10.67711285,12.22679206,14.17195927,16.3003961,22.19241286,14.16469256,12.16630971,12.99033841,12.74499585,14.27417549,20.56589217,13.4926698,5.352621359,12.92516954,13.86038525,9.562497361,19.47372187,12.54466344,16.72410167,3.233582385,8.08783249,10.97415756,18.80466806,89.30579829,13.02588416,14.66418531,17.94899342,17.79730398,7.119431807,4.846039311,12.55123992,6.241932775,16.56859078,17.03581622,8.950793401,16.05057381,11.59904733,18.15642153,12.82442396,19.06852222,14.83393696,1.355667897,12.60774301,0.921338832,16.40878838,13.37069389,7.529573746,17.10033906,13.41648365,14.45240683,12.18106628,21.67517209,141.8208006,10.31811041,72.71766231,15.53565053,14.43031026,13.14080886,12.14396865,17.80964606,17.1809426,27.73741562,13.6084581,5.493366543,17.87057481,16.50627762,12.67293507,23.0362348,14.97087783,3.251159384,15.97057695,10.28543562,1.376393391,11.37796911
5091,0.19907135,0.186425053,0.211340584,0.202742489,0.18915202,0.212781547,0.207038719,0.197609601,0.217205225,0.200532393,0.204215212,0.220925312,0.210666845,0.197601408,0.214212409,0.205438642,0.202262441,0.205308248,0.200706189,0.209736245,0.207480653,0.153714749,0.22029899,0.222509703,0.216689713,0.215320968,0.207819586,0.187122252,0.209908747,0.186614638,0.192419925,0.202229937,0.199166017,0.224322573,0.173849844,0.203937159,0.209218363,0.199890258,0.190751964,0.210468719,0.205287131,0.197711392,0.214791932,0.208403502,0.19201661,0.201407451,0.206965738,0.19002253,0.196842575,0.21464245,0.207361061,0.10055408,0.19577203,0.187347732,0.209899147,0.199308542,0.232899786,0.222002438,0.227811087,0.206631067,0.209299302,0.222029558,0.224234648,0.222587119,0.218801782,0.195209843,0.195678133,0.160508417,0.208771787,0.100396788,0.241927792,0.206518386,0.239157864,0.047983255,0.095726046,0.149426356,0.24537731,0.260513478,0.091004453,0.090237277,0.205425334,0.232301688,0.214933343,0.229948266,0.21898747,0.200303127,0.207811516,0.163600616,0.213545644,0.212792422,0.210752985,0.196985429,0.185940483,0.221489763,0.20769144,0.16382298,0.203661928,0.205897414,0.225777376,0.218074866,0.201175293,0.20689136,0.225579754,0.199302601,0.198622945,0.197834596,0.188565686,0.194950809,0.211100836,0.19169691,0.19768379,0.212529437,0.209248699,0.102332131,0.205708237,0.060734744,0.229978982,0.177945592,0.189494063,0.173160182,0.196236996,0.197086163,0.194986982,0.197418479,0.192242426,0.186973614,0.066807443,0.094105753,0.214224991,0.212188032,0.189967036,0.182468856,0.206129607,0.231341908,0.193399521,0.207999442,0.218421499,0.2027556,0.205016825,0.218451311,0.21469492,0.186598022,0.196989372,0.195168494,0.203333968,0.216896788,0.229040838,0.184238834,0.215732399,0.207574389,0.227169027,0.228921836,0.205410935,0.205903645,0.21745582,0.230337035,0.222480041,0.209258617,0.225173274,0.226474423,0.212013995,0.21622804,0.205151403,0.222660868,0.214524212,0.229406552,0.218483298,0.22360811,0.203700801,0.203775322,0.214336224,0.206471028,0.212876345,0.224732,0.220848916,0.208680658,0.213730976,0.207786856,0.211564611,0.215323205,11.04661512,10.66142229,19.04229769,29.38484666,20.35065135,14.03847723,9.003120847,15.52276006,16.68357738,8.728922565,6.834543114,6.884979823,16.45566398,17.24711428,5.827530414,18.51782547,12.87185101,15.02158125,10.47222876,67.34373559,9.324359584,17.79827167,14.58663199,11.01660187,11.61416183,13.63390181,16.43200542,11.87174458,11.65177164,16.63390973,17.36112284,2.496345063,25.48458019,17.89224167,13.29165695,17.24995275,17.61360484,17.11115941,12.30564794,3.607212058,14.84540246,5.497058752,6.723860256,14.08207718,10.7992772,10.83811761,2.371577203,32.49314406,16.02813206,13.97342931,11.53544632,15.56761249,55.19087121,2.080824124,15.12629992,13.6714625,40.04848941,14.85033076,21.72290319,16.5692691,16.77216068,19.89476132,15.83907839,12.71019677,3.774621163,8.900409784,12.20859365,11.63695727,12.88237642,7.241336822,34.49223655,143.5860164,10.69192773,8.479581526,11.91403325,12.77132929,13.3974952,7.273698587,14.76143464,11.99457443,10.87663319,15.57095771,70.72528625,9.533802738,10.22249709,12.88213738,16.78742783,38.35358084,22411.22037,17.43649237,13.22737934,40.73367098,10.98810193,22.31829519,11.53795658,15.8230281,11.81054813,12.35013726,19.20166712,24.36714871,11.06757996,10.00717986,20.21521404,16.76936259,13.21829412,31.81447365,6.193404481,0.35261139,21.47609865,33.04858786,14.98544068,15.42785587,30.57104876,19.69597276,11.19620181,13.36292474,37.4166258,13.40087322,10.04689921,11.49027779,14.15593562,11.31492763,6.457629123,9.296493774,3.806863312,0.668818469,12.60277759,11.85715129,10.30636847,24.71728975,13.11672259,12.10931502,41.51879882,12.23779622,11.34485665,12.44263755,10.40104761,102.6988672,10.16949274,5.754084404,188.5931922,13.13998503,36.9282968,13.26027164,12.10440251,3.917215856,11.9125858,11.56047157,12.32289881,21.36788489,18.04044854,8.021429956,15.70439564,19.59639085,5.920978521,12.48307486,44.49104081,7.337888388,5.364034588,92.93816033,1.45000958,22.04229899,11.58217986,13.27900044,15.70202928,12.47960826,17.97397347,14.90143955,31.62498923,3.578594404,16.49450994,20.69614452,11.67410558,8.369300984,18.74380188,144.1190449,13.80079804,10.81464805,11.33367619,15.00970491
5121,0.157867948,0.113428076,0.09718975,0.109901492,0.11725852,0.174860111,0.111267909,0.106114696,0.106594322,0.094430305,0.137906007,0.162585542,0.174595649,0.007467429,0.019463466,0.075587644,0.174339122,0.198116554,0.213501558,0.04496604,0.03939854,0.086908828,0.211058159,0.012548496,0.040575393,0.075950113,0.144310653,0.133908475,0.126608941,0.152646565,0.082873965,0.119009196,0.089612853,0.14432177,0.094320575,0.092072811,0.085163326,0.093211137,0.121748721,0.102127794,0.120128702,0.08302987,0.104667438,0.093044318,0.089284593,0.108023513,0.108160442,0.115927226,0.185649792,0.172035118,0.14132958,0.084192149,0.085179687,0.076357291,0.086559024,0.064764871,0.082476049,0.074293597,0.095166162,0.10806375,0.075938192,0.06364359,0.076930885,0.078172725,0.073178306,0.069733233,0.096935052,0.074395026,0.073308747,0.078406012,0.069633227,0.076043642,0.076047265,0.08164633,0.074435732,0.085388579,0.067421272,0.078728012,0.075056087,0.087831848,0.085780033,0.083581735,0.074030792,0.079781746,0.077459858,0.07663344,0.076790132,0.073737474,0.078417886,0.07309487,0.069089897,0.072194239,0.079451504,0.070875644,0.072564442,0.067107515,0.074999879,0.071373043,0.074820553,0.06817598,0.071402536,0.079909412,0.074434843,0.084801731,0.066536463,0.073304213,0.076062588,0.083711534,0.071105017,0.076965956,0.080553742,0.072868778,0.073734498,0.072249387,0.07726915,0.068747424,0.066478011,0.071167336,0.071604799,0.075471585,0.077275858,0.073593388,0.077481021,0.0769384,0.073909039,0.072357512,0.074036064,0.073464598,0.134705725,0.157649773,0.123457936,0.092916311,0.095903733,0.089324065,0.093875893,0.090731433,0.093613405,0.078758388,0.095623666,0.09150651,0.085086424,0.087360447,0.107693028,0.084300485,0.090074622,0.0990454,0.134961154,0.083719341,0.090956611,0.079270665,0.091668684,0.083025381,0.077108586,0.029393277,0.091543245,0.486734601,0.49626246,0.489332598,0.523110507,0.544864785,0.531939556,0.479634478,0.528933333,0.014688216,0.074721213,0.117119198,0.127286386,0.104270875,0.084108459,0.100628825,0.099035748,0.13735462,0.107916833,0.13873078,0.104008071,0.113357444,0.098461235,0.089639398,0.081060579,0.083863048,11.84585845,47.39571312,11.02142774,9.107425844,15.6868701,24.58235751,12.24872084,12.38112939,3.446248136,15.61563693,6001.070447,11.35001956,13.85074487,12.86215754,12.2621713,15.79325961,14.34852024,6.839841406,15.552565,8.17740048,12.62064982,79.61421338,12.19013734,12.65456589,12.49594146,13.05591449,12.78729243,0.605942564,11.71101363,10.98627927,4.892215003,22.92766619,6.490272957,11.22535525,13.06216576,15.04954436,13.24600296,12.70958081,121.7516542,6.544823084,43.14905795,1.026141521,14.76714437,11.65504881,18.01518449,15.32586576,16.38585838,11.99698329,12.33546632,13.74914284,8.275102047,14.54958484,5.250920692,5.70603891,16.14631968,10.34540469,19.09294076,17.58304942,88.09653875,11.0246886,14.07394916,15.62946452,79.60467558,13.4634959,9.115921399,12.05884882,15.31055385,14.1652903,10.19325246,10.66911371,10.74061519,19.97451723,17.09795531,18.62757042,118.9831965,11.14250867,8.194702416,12.25140155,14.59854503,40.56038677,9.877548131,15.668859,15.33936496,6.642421227,14.92508601,16.03734692,7.82297366,13.47158166,11.22788941,84.13911552,71.40812825,9.744694562,14.40873223,26.41556911,11.37389366,78.95417133,8.298780459,8.069274498,89.17377664,15.85728207,14.62162337,24.12990778,19.12941627,5.459165227,12.16159564,16.36651356,26.53963497,8.316587488,14.67338587,2.709305634,14.91772435,13.10200314,17.41875789,13.66023318,190.5795124,45.66492276,10.67543644,12.41250729,10.6459013,16.53470635,211.6123836,14.99667754,13.61166455,16.71792604,2.10778566,17.80503872,13.11717044,15.89184005,14.03294601,11.5459978,13.40922665,22.63279951,2.215985897,16.0850463,2.590318313,13.73186245,17.45833426,2.151103976,173.0415565,13.6250597,14.37699711,15.2212682,12.98365593,16.65607262,15.84486739,2.339864073,14.16684395,19.73897417,91.4246206,14.87798257,14.06267728,9.319499482,12.44465078,11.87033219,12.43938817,11.62913237,10.84369432,38.85560998,6.650527064,12.95916622,17.03340994,12.90670392,19.59891159,10.95556835,12.617777,14.91238376,18.68164295,17.17552395,31.51270393,10.44852721,16.04074144,12.30339489,33.35965764,12.07703045,17.63023255,11.61824308,14.81315313,20.46386651,11.62564451,8.854633428
5261,0.511801588,0.52745475,0.482847048,0.606361049,0.408215141,0.53674135,0.606377846,0.578563689,0.604285408,0.529742936,0.516566434,0.538447534,0.617273368,0.55726733,0.482926839,0.518209666,0.692512461,0.668752936,0.691075393,0.631742089,0.603533036,0.480129646,0.717406449,0.584852961,0.534334587,0.445575068,0.28469066,0.241742346,0.279160581,0.232624303,0.265350548,0.236244695,0.23487042,0.261943184,0.279450374,0.264660217,0.264036825,0.282223468,0.297470277,0.273522387,0.28399469,0.288468947,0.27844571,0.274334694,0.287365546,0.272514321,0.272038424,0.283025772,0.300157871,0.293619306,0.294234753,0.27690518,0.287462221,0.292947829,0.459311768,0.452058362,0.399515024,0.435379511,0.392927025,0.400552164,0.51923701,0.571843251,0.51327097,0.519749976,0.494481189,0.526408347,0.50210527,0.498214322,0.392040505,0.286249376,0.268022834,0.284614184,0.277873986,0.270231049,0.263351441,0.279260677,0.267344587,0.304302165,0.266897934,0.308930462,0.302546613,0.297855934,0.298300454,0.255729931,0.211519822,0.267200692,0.285523061,0.288843511,0.270890074,0.322733779,0.314987328,0.303984972,0.276954791,0.278984015,0.279371275,0.331403002,0.282908249,0.256415055,0.28829405,0.274090452,0.206232939,0.293984762,0.336696305,0.329970138,0.325035243,0.390666661,0.357088196,0.331830888,0.365640172,0.375966321,0.268930084,0.278011486,0.212678423,0.245887306,0.257609745,0.267069928,0.277078861,0.273219987,0.287898633,0.653247164,0.354941562,0.431733317,0.384300857,0.381613124,0.415759207,0.38878291,0.428391553,0.410178335,0.455546754,0.283140146,0.312779353,0.483874583,0.565195719,0.616133938,0.734667761,0.564070639,0.457798822,0.47437865,0.483382942,0.505220585,0.345106009,0.506863992,0.481290093,0.419731422,0.344932033,0.265484679,0.290356988,0.250839835,0.277064956,0.535690849,0.339595312,0.266928645,0.300941023,0.347733261,0.311121456,0.358405612,0.289929075,0.333618497,0.35917821,0.313194789,0.308720366,0.333361519,0.417373353,0.416094611,0.435496003,0.365258727,0.341567494,0.315835356,0.369355442,0.318253437,0.27361792,0.335059999,0.327224721,0.319353416,0.332808573,0.328781721,0.321560923,0.342209175,0.438021616,0.461654533,18.38429461,18.3858091,17.13335017,15.56984634,12.08117525,12.14275293,29.03631144,18.27413362,13.22500102,13.54465277,28.92151615,14.77704207,10.96033289,3.084743082,12.99661637,11.27970504,13.73036102,13.92852104,21.42686275,51.56595949,11.16572717,11.29143059,33.96867531,7.051467284,7.829478165,15.25800915,0.881642083,13.54175343,19.09105555,17.88716139,181.1208728,9.784254264,13.30656109,16.04609553,22.51822126,14.0274403,21.52376529,15.71100507,21.40841339,10.23056644,13.6735466,12.93075444,1.175378148,18.74345765,6.108431828,15.52518321,9.015272281,47.6561107,25.97050793,0.751447159,16.55207971,17.87045514,17.19716887,17.26417234,3.893426865,14.27910265,10.8071195,67.15655352,693.4041271,6.148099961,18.02318604,18.71225458,18.97784594,19.33502822,12.03360683,17.49031842,153.5994401,18.41689339,4.639020107,33.49609345,10.46643547,12.88509666,12.75405989,15.75642462,4.125745638,26.57165424,3.015373662,4.668731079,18.4516063,15.51146909,15.46416307,12.89756626,9.818270535,207.6456044,13.31105751,15.22655059,18.22276674,15.02614434,11.25893638,20.89152854,15.84094102,22.20474986,12.27114658,17.10710753,16.3332554,14.40198134,13.56021006,18.38238683,16.68207286,14.7269394,12.91458996,17.34849744,9.018385415,9.487353405,11.94229862,11.3519033,11.62610407,18.62890678,13.83602295,18.48627347,8.251831165,12.16541837,12.78837552,11.32907327,22.33189977,17.64729338,11.74800587,18.40915393,7465.432484,10.74989615,12.62406034,20.46766461,19.65084113,15.11775583,21.38785785,20.19314403,13.6208822,17.29534052,16.31165277,14.94024125,12.73671522,27.27412203,17.87822711,14.06224303,16.9692306,20.67096938,4.281288342,12.50078864,13.29926549,1.940351366,12.42875335,14.79683262,137.5475865,21.33675315,8.346584439,110.1072566,10.2466998,17.5237645,6.254766339,10.52926079,91.13787395,9.976773077,18.37520167,6.272319622,23.32717881,16.56936923,19.68790189,16.0272535,11.26195957,16.23598242,13.20828277,14.43110445,12.71864202,14.65743124,22.95026707,10.98807045,37.75838328,91.08599691,15.50705277,19.61244301,12.37310925,21.27697332,12.72821038,26.52342538,16.86801734,17.67950556,13.37180319,14.67679809,18.53890221,23.27343042
6426,0.237550038,0.224548617,0.239770519,0.24177768,0.228384113,0.236043651,0.248887416,0.232466601,0.230338018,0.192657685,0.256182064,0.244930595,0.263307506,0.237066806,0.230961885,0.226991253,0.260595416,0.225364528,0.273818775,0.230983173,0.247526643,0.260851006,0.184106616,0.233617412,0.306564084,0.24181398,0.223876278,0.239889605,0.196381363,0.224136396,0.239403126,0.207231621,0.244880038,0.263355484,0.255262595,0.23790865,0.223985034,0.222535615,0.19467426,0.20373323,0.201243757,0.223024333,0.199097753,0.225383034,0.224943566,0.191643523,0.22692953,0.245413683,0.211310765,0.243908443,0.229715982,0.202047312,0.210625658,0.225185375,0.229230485,0.214571076,0.230848235,0.2511418,0.24073063,0.215082141,0.221056399,0.225250576,0.265420448,0.244469871,0.223839987,0.20230244,0.211354623,0.23864991,0.220124294,0.264771039,0.243265266,0.221164235,0.25104245,0.225522383,0.247233691,0.198940551,0.22017779,0.22994145,0.234033683,0.222708446,0.206428412,0.217081257,0.222712188,0.241653701,0.246479596,0.202087837,0.241478881,0.214230583,0.237572593,0.180813111,0.220132674,0.281883809,0.213563391,0.267230062,0.230779184,0.246167687,0.207793616,0.196427254,0.198936317,0.210758943,0.246018926,0.269104027,0.301213356,0.259518158,0.285167956,0.314910857,0.290473463,0.26632731,0.23529563,0.28879415,0.239886789,0.26502998,0.266427736,0.275109383,0.214176045,0.239506066,0.208443688,0.281597118,0.258344498,0.234256692,0.238427703,0.206492988,0.249458094,0.235898411,0.251907793,0.267811661,0.275650812,0.228940344,0.191210938,0.166999381,0.242460906,0.233104291,0.284540221,0.22543449,0.185407625,0.22540627,0.232420162,0.20721057,0.219789322,0.244643911,0.174448987,0.223165412,0.187392878,0.19265447,0.249253089,0.226827905,0.218198808,0.25236476,0.306207876,0.39892854,0.293461865,0.401128029,0.531004107,0.317461621,0.290643384,0.219863861,0.26433239,0.252924341,0.283987468,0.249694004,0.280571177,0.263910298,0.374112919,0.334743938,0.279522208,0.297100289,0.297073603,0.273697082,0.296114915,0.30541626,0.271483934,0.288169001,0.352106606,0.298665258,0.324165503,0.251167129,0.273793393,0.289917774,0.281685088,0.282138797,12.16537523,10.47698925,11.57409081,3.943087586,5.702177567,17.51246181,3.974062303,12.01272279,26.13622372,9.802538368,17.61902733,16.92201374,12.42633572,15.27211796,12.03900029,23.35866004,3.185532539,12.97962741,12.24289371,51.30074421,3.273628764,9.225387374,18.50656235,13.14346169,15.46054746,13.81422149,11.42608415,7.464441769,7.678245264,13.35546526,19.29596602,6.579892879,12.71298664,11.86514405,7.505851425,15.74562441,12.30102738,12.49001542,9.526662727,14.65544179,11.59676971,22.11799694,9.490698769,12.15421414,2.343374317,7.007393545,8.760520375,21.63670472,16.62756216,15.55469892,15.97877939,9.718147612,11.11739742,9.88551873,14.16979275,19.33700732,12.8962872,11.68230298,9.468117843,0.75738021,10.08040402,8.817123948,14.25633648,27.35824346,12.22139192,27.41651949,12.96501549,15.10512262,9.905084715,7.851487678,11.78614699,14.92019835,11.64355844,13.37518114,14.69138075,11.75182141,1.371977737,19.3552153,24.12454975,20.90746766,23.66591675,14.69805869,14.76706277,2.187893328,652.3709818,31.04754391,15.36623471,7.078071776,5.848464301,15.08750278,62.73235339,13.03878293,13.60305071,11.87772175,4.509163952,14.18494005,13.4866809,3.625589817,6.586055835,52.13423257,15.65633803,81.8689897,8.018359218,10.78225481,5.816136967,54.89168885,17.93439203,13.08893444,13.54937952,18.1941482,12.67816768,8.771680591,32.83788595,15.95978408,16.65137659,33.89672717,19.77671447,10.03174933,6.529209428,9.209396335,3.767337051,11.35745058,256.4609547,77.65478766,14.45208769,9.955805582,8.233637935,0.28657584,2.299009741,10.47860496,7.972735879,58.7703376,9.111302035,12.95869803,22.7996085,2.27566014,24.02692732,175.7652209,15.67140419,348.5511113,7.70330797,8.755018437,18.30482106,17.16968591,2993.530168,11.83736395,13.38618789,15.72090528,15.38388116,6.860027603,42.84622497,21.67708017,12.94808368,114.5089,12.10221794,7.2632518,10.30679661,11.2849691,2.201642036,28.98297889,4.597789938,20.13884585,6.802545808,13.79972044,21.93354972,46.55990003,16.02292022,1.020852962,27.27096533,6.574696472,4.71937433,11.37366965,13.9188095,14.37006384,122.5422595,16.87647873,26.74882632,40.67608717,17.7468945,18.18113888
6453,0.200257283,0.195508878,0.215724979,0.265043861,0.246122039,0.27335416,0.179867213,0.184277458,0.213660099,0.214448478,0.192429587,0.238958664,0.205386665,0.188703346,0.182192854,0.181131114,0.177286891,0.194999551,0.175893713,0.205436021,0.17973616,0.192085054,0.179230561,0.195195224,0.178257844,0.190798165,0.186340394,0.183867498,0.190867365,0.192786652,0.189643366,0.193836682,0.179897728,0.175751903,0.186964685,0.182331244,0.189633912,0.177815595,0.471145994,0.628533626,0.573332308,0.646059293,0.504023795,0.324432135,0.319311195,0.305794838,0.386318175,0.353349433,0.382702496,0.342140684,0.216835276,0.318895256,0.293299404,0.320334866,0.383366087,0.304621681,0.270335751,0.24259172,0.281429816,0.290845279,0.288262764,0.234308796,0.369243144,0.253594478,0.258944359,0.216107268,0.567488431,0.452161069,0.308023125,0.269923152,0.50073991,0.237725811,0.266954306,0.195246929,0.219520632,0.27129628,0.201700508,0.208482927,0.248483716,0.193992078,0.476426036,0.25762495,0.219333146,0.202387613,0.205349604,0.180175619,0.195055562,0.37609473,0.209975532,0.256699525,0.169912867,0.302204932,0.268028406,0.228973198,0.234481696,0.19695838,0.240228732,0.195733341,0.196626505,0.250165195,0.24184694,0.217552669,0.229530465,0.222557696,0.246744258,0.273560937,0.26201964,0.222984021,0.23896539,0.250327481,0.264569246,0.20278395,0.219308174,0.215294406,0.261169002,0.44221699,0.528485027,0.411795536,0.432483497,0.500035573,0.375055433,0.224073152,0.197046545,0.192266026,0.204563851,0.205500253,0.220270756,0.219275654,0.401849598,0.390422429,0.206568617,0.202037779,0.250554947,0.191807878,0.252881091,0.242605588,0.235831019,0.223004885,0.224990198,0.216702906,0.228672916,0.213304288,0.228701659,0.232577311,0.260083496,0.29815925,0.26545306,0.253418978,0.212544972,0.243513376,0.300661371,0.337429458,0.294504019,0.254079477,0.298620003,0.230603584,0.251538699,0.225316955,0.204502291,0.19953684,0.190836102,0.226143672,0.202344809,0.197730206,0.194950556,0.192283248,0.213210318,0.198905651,0.203170382,0.203447636,0.16736286,0.17368862,0.193117806,0.178309226,0.178621865,0.160529397,0.187416901,0.17740403,0.165453823,0.164862208,12.32943047,10.66370607,2.286428458,12.47548551,13.81082532,1.443404954,8.45866041,12.12219191,11.05508028,9.872984297,4.962707497,4.237631571,13.54401387,9.441032593,13.05737356,10.74938132,0.725519909,5.637551102,23.46439225,11.87162605,8.574456784,10.03157123,11.03929303,13.89805279,11.12559467,20.81040217,3.933333996,12.70636151,11.63919817,4.698654943,6.012799164,9.608688813,14.09365688,23.08625021,1.415454758,7.973345876,9.442030067,4.323571043,23.04208161,13.43346449,6.932948293,16.74908387,1.742945657,17.58395231,2.914112804,44.89937161,16.41797535,15.65964102,32.88558904,15.45414628,13.80838063,11.03436195,13.18219416,5.877016328,3.600290192,9.209225611,10.18842131,1.988052605,15.38034268,11.35477483,13.2348153,13.72419325,22.52893929,112.2026396,8.232856117,12.99257865,62.4787353,7.3811897,17.09522792,15.98594112,6.503913176,3.641045047,24.5891694,14.66979451,9.104536007,9.251966888,10.35124427,6.366691647,4.802725701,9.469362598,46.41651564,1.367165251,10.76723971,17.58554782,1.58282473,12.49090736,18.34392926,7.669372502,13.2896198,13.54390628,13.01464198,8.401490784,0.56887681,10.31868944,15.97704044,11.08356089,13.91639411,8.841193407,11.98664715,2.255787131,17.30459866,18.7578125,1.379316013,8.645805553,31.36729256,17.22519124,11.10815727,9.21892508,17.83094446,9.063325531,5.950975166,7.356863196,2.895540349,24.72742649,5.316923082,16.32760262,13.37675869,16.86746072,12.26258217,14.41527959,3.550967227,12.27767802,15.25489653,51.05952332,16.31220317,12.47181954,5.861182073,18.57132801,18.13475515,7.6205886,13.04159535,12.93355524,11.51874717,11.5060696,9.111844312,9.304308041,77.0922737,9.170828029,11.34868264,16.19932903,12.88023954,19.66143352,15.33967638,12.12845172,16.17221745,10.30026863,12.60895078,0.857730703,5.703105521,10.93664027,14.33184955,13.21467874,14.87211726,1.828046004,16.09286442,12.22504612,8.616985516,11.67684246,15.15674386,8.236722632,15.33888681,15.13278804,16.13873915,13.6938011,7.427321658,0.311023878,9.821983122,14.22192382,10.64226968,10.18163843,11.05996683,37.33581712,2.658938823,9.033874626,9.132524036,31.23302094,14.7487976,1.028601211,196.8439212,21.89157582
6995,0.26742047,0.325913189,0.270556937,0.305765334,0.320998867,0.284439349,0.290879169,0.279613938,0.320193409,0.280591603,0.276973648,0.29964436,0.276724719,0.286998574,0.275321013,0.282913694,0.276747606,0.269566089,0.274933338,0.285308253,0.328643826,0.282040967,0.285202801,0.226729295,0.28138401,0.302173388,0.29580688,0.315625651,0.33608625,0.322000682,0.299577915,0.283594527,0.278421121,0.271324214,0.308258967,0.30808976,0.356068417,0.271384393,0.257311504,0.253834271,0.2627596,0.268753871,0.240283026,0.2646862,0.292670939,0.268177978,0.250633489,0.291522593,0.309440932,0.321983273,0.291783885,0.291246922,0.261360709,0.319107575,0.27994109,0.30763761,0.308700258,0.296359166,0.314555129,0.286372796,0.297609565,0.322102533,0.376439596,0.37658972,0.288051317,0.307451012,0.301331528,0.261027586,0.272021339,0.315892297,0.301835157,0.290170851,0.285259747,0.27317365,0.305452139,0.313353791,0.33069546,0.39587605,0.363118329,0.347495384,0.306335108,0.375093826,0.346217119,0.275922843,0.308713411,0.374827901,0.345305021,0.323181144,0.326127905,0.387973828,0.474470264,0.371149839,0.417083145,0.311400967,0.333191296,0.320409044,0.337776906,0.330139198,0.328623314,0.311352607,0.29248942,0.502064878,0.282090362,0.332733569,0.345016601,0.300647817,0.32279952,0.338854489,0.31339896,0.268082505,0.317690577,0.3384132,0.323149814,0.280767191,0.309729315,0.324726953,0.264498971,0.261272677,0.300485243,0.31227913,0.27561269,0.241402154,0.332086742,0.31026179,0.294729505,0.287975132,0.280964528,0.298069192,0.295849691,0.312988067,0.318261425,0.331499173,0.366049602,0.302789469,0.313727434,0.320301022,0.295212269,0.318265253,0.341647895,0.28824421,0.290193466,0.297873862,0.247216742,0.274955953,0.315072992,0.318178474,0.300209371,0.319753701,0.297337827,0.24336221,0.29288767,0.275046896,0.289711756,0.394879536,0.273822127,0.327396667,0.305194934,0.353421414,0.236834491,0.229206162,0.222440631,0.195964708,0.191571796,0.180846975,0.204329247,0.213023368,0.167865254,0.272055657,0.261515708,0.301763404,0.247452186,0.23821899,0.259281326,0.23757385,0.267984285,0.186737116,0.23822635,0.268434073,0.250952734,0.26062542,171.5995173,9.698166653,16.03593783,2.029058725,10.28750606,7.974029039,2141.377516,1.784859566,11.10248312,8.114553507,12.4027802,13.08325072,10.90808028,13.66979896,12.10002124,9.428643228,12.40831677,7.575273838,9.473679159,97.71777229,11.5515184,10.27435381,11.26833867,16.52547418,10.84014389,2.856532486,13.63032154,49.20661354,10.40461161,12.16589192,7.398958773,16.95927116,17.74783019,9.437424348,10.82814698,13.33945713,20.20163013,18.54988928,12.38693863,15.00782706,12.72105148,10.75530189,13.47278761,11.76014587,58.87242673,13.15081798,3.521334426,12.95037757,19.00831464,10.34875728,16.25229254,17.61674557,16.79860132,17.96724323,12.90407556,4.37156912,8.255637235,17.03259026,5.84680195,19.63083384,25.08559198,8.552627839,3.684548255,50.07250004,9.976225786,29.80975817,10.39400113,17.50985978,11.93226892,9.669575734,6.69386604,10.01059051,14.32879582,1.996891736,10.86029889,73.38259598,11.66315653,14.30247206,11.88385535,10.56174784,14.14097608,22.46844004,13.37275354,16.64770385,10.85713781,6.679333308,11.35124145,304.5367365,6.289156353,15.17289347,12.28818471,10.26229063,13.27768713,11.08302073,10.97891113,8.412648477,15.75855065,17.1226352,14.57861632,26.29671172,19.40008063,15.1519921,13.98701164,11.25404859,11.6249172,2.187628855,14.36253569,16.11818495,7.226406731,14.71342601,9.381950361,13.46616785,4.532439754,18.96628281,172.0860843,15.84868604,12.06610139,10.143599,6.932668082,12.95465996,14.13276048,15.74427732,3.276657366,12.03540442,11.0200442,9.880926292,10.82302338,14.66674564,10.24966288,3.596337081,9.887464031,13.31858719,7.880211532,12.51301738,12.27152683,15.96371674,8.070789428,12.6828237,13.41612929,11.22075994,11.5385396,6.903943441,9.853540723,7.382832909,16.04813859,12.84839581,10.8352878,10.99847445,2.464312609,0.487662894,13.9969516,46.79936756,8.554241958,11.9958146,12.1128003,18.15864528,0.783952471,7.601138393,16.33754628,37.34345574,11.42939324,10.583424,5.987930783,11.72418219,14.37196964,32.29365465,4.935750529,16.83418945,16.82483257,16.80900949,16.65563253,67.78195532,11.36674882,15.05168704,8.514168805,11.25605401,19.63532101,775.4357393,17.80231312,10.96615547
7162,0.295932853,0.35063836,0.235782952,0.194046578,0.349942561,0.346991022,0.322238921,0.145270718,0.156101888,0.295440428,0.252097188,0.20623187,0.22752983,0.153581075,0.238567235,0.144599827,0.234964987,0.495281734,0.275311667,0.355417667,0.260642371,0.308606339,0.317525529,0.326906157,0.324670436,0.378678942,0.430745354,0.248035481,0.310731234,0.268033146,0.295680684,0.355089546,0.384670834,0.232834223,0.43264478,0.318332477,0.228707587,0.310510867,0.332636985,0.44056587,0.408970601,0.325866705,0.255248916,0.296650872,0.282892315,0.156928444,0.276235504,0.213742384,0.108700379,0.183050851,0.226444886,0.267707684,0.393451008,0.445797577,0.285221902,0.227549367,0.225143421,0.281813718,0.366339173,0.420157853,0.450929544,0.382942076,0.320805428,0.198479474,0.316805013,0.334697523,0.410967422,0.28772401,0.208247896,0.224171632,0.307351919,0.361503012,0.380339144,0.433030493,0.349634161,0.332166389,0.286638198,0.317648902,0.334128209,0.233084172,0.341852746,0.154780698,0.281182247,0.303204662,0.190044193,0.312166088,0.351966949,0.426498099,0.410402964,0.275859326,0.36346629,0.270372907,0.266923176,0.318969307,0.403581505,0.309947909,0.304555117,0.301283816,0.243105137,0.294576674,0.42845395,0.410606675,0.324972195,0.2132002,0.233875458,0.336824654,0.3082093,0.421531681,0.417447787,0.41549969,0.30100798,0.289321984,0.316927768,0.335186093,0.397723769,0.361067987,0.436516105,0.332971131,0.3111303,0.325161718,0.340326177,0.263685529,0.387290927,0.461093011,0.363261919,0.144198726,0.052627034,0.251557,0.35237414,0.324355506,0.38923234,0.336932511,0.282521481,0.093388214,0.233499724,0.347771228,0.386315509,0.464354749,0.423632646,0.277886622,0.249507597,0.323511826,0.362063999,0.420938729,0.267550773,0.253621048,0.266852303,0.299456432,0.217359439,0.343823093,0.435636624,0.437681729,0.329496816,0.265298089,0.181622797,0.392877385,0.3612518,0.095447732,0.436291585,0.234747011,0.286882552,0.187063637,0.270978025,0.355238873,0.371065737,0.46647075,0.365967116,0.313378333,0.315896321,0.345711875,0.314175151,0.435944782,0.366859637,0.334340998,0.334436672,0.328765615,0.315941302,0.296391965,0.396527531,0.387878703,13.58988826,11.21629675,10.28253178,21.61593686,16.66412613,1.330011303,8.19466351,10.19532068,12.93894843,11.27346581,10.51826422,16.70800272,18.00303566,15.43115723,10.69086794,11.6059879,1.692503597,11.94991026,11.1943774,10.91352458,15.84435556,18.81100952,12.36996719,12.97640519,22.00949822,11.18134276,12.87867262,16.44788537,12.54456015,29.60775345,12.90698054,9.763330572,12.70265676,22.06179676,7.652676171,11.11574965,11.65419109,11.65946932,4.142083399,7.676269439,8.871123976,3.37556846,10.63907961,8.19912402,12.1372663,11.39482928,12.93884534,10.92025677,12.25011926,11.382847,14.64382,11.59843262,11.42611836,14.29519449,1.392555742,16.02408441,13.72912986,9.608297823,2.699835763,9.940911515,12.70027144,15.84174895,9.010996148,29.06589777,11.20870622,11.32710493,218.6024219,11.15656206,12.69872675,12.7667854,5.864835735,10.76992162,9.6205543,1.297787941,3.553053967,15.52205035,9.91762256,15.35937465,6.456255828,8.819173264,12.79626503,12.87154129,12.08455646,11.7091144,36.37412455,22.70460994,4.159094877,17.1298947,9.011835069,115.1263643,19.26171558,41.00693989,9.875996139,6.765921772,13.46632796,7.549986034,9.649451775,10.59239134,9.863133067,97.86697812,8.988259369,10.24890673,15.33502932,10.86234541,13.74209868,12.06616481,10.87142708,1.923006095,12.96232482,12.09572088,10.90178043,14.53218396,17.50642019,4.118418595,4.436079354,12.48712223,4.008679514,8.644314474,11.7060519,11.01310803,11.81651868,11.63247392,11.35116375,12.31747268,12.13245131,15.51027374,10.0535268,9.638862701,10.81049734,16.32202309,12.51288112,15.43430437,13.53256255,54.23724492,12.31068911,3.615926165,10.61168756,11.96551679,10.62189954,15.68402384,10.96545112,8.138420279,12.41814397,10.54494636,13.16094514,20.35893252,10.77925392,10.6871111,5.3050911,11.14971595,12.74558307,13.3398079,11.68070339,11.87698447,13.57803707,12.07661325,11.15920938,13.03768648,12.82862962,13.8862419,10.01887118,8.275324326,19.66626378,10.67169832,8.405065219,12.12877187,7.200830126,13.3221661,1.77426252,12.75424355,17.51545359,18.97247205,13.44301789,14.37272337,3.390547712,2.4609509,5.887309228,11.97002109,5.009451804,14.42328188
7859,0.864865544,0.860045948,0.723510762,0.332597384,0.347870588,0.273283655,0.505977806,0.523816919,0.459593067,0.275714186,0.58651134,0.487969076,0.475230096,0.316738277,0.599169951,0.486216654,0.633631993,0.793865063,0.331739741,0.455209402,0.290899532,0.259046493,0.211633242,0.237921367,0.240923316,0.312005234,0.495536372,0.410362905,0.192622704,0.229087383,0.20987969,0.339346578,0.271553076,0.254958444,0.301946899,0.300457155,0.206157675,0.336861682,0.311181285,0.334398429,0.297925684,0.184531637,0.192113331,0.257656435,0.265585495,0.185024814,0.156356462,0.616840376,0.341755721,0.400385264,0.194100854,0.2658602,0.233622485,0.267136873,0.280355242,0.264219823,0.273983676,0.374103645,0.410399485,0.396697376,0.421986819,0.682209613,0.656995506,0.614625337,0.333661411,0.287667349,0.298810622,0.352496824,0.238064661,0.227882186,0.200168668,0.25724481,0.177576369,0.288851317,0.266688073,0.255303135,0.14957988,0.21950915,0.259229693,0.231353186,0.285190148,0.335386714,0.317499584,0.316464891,0.343119603,0.345793422,0.340976236,0.266436907,0.24365037,0.242585753,0.207998678,0.350335199,0.284700779,0.195589062,0.243792669,0.294543983,0.235871626,0.291624781,0.318540677,0.418925313,0.554014726,0.340915232,0.481354716,0.336888643,0.332006753,0.297307925,0.185497403,0.328945986,0.421673392,0.292232186,0.395168166,0.464214873,0.474794825,0.527447101,0.434720098,0.349714506,0.351598763,0.232752507,0.293272574,0.161703769,0.231023679,0.24249228,0.106258331,0.320043381,0.281924863,0.263850947,0.26971778,0.2302567,0.241994949,0.259261561,0.364771902,0.338733205,0.287246718,0.296989346,0.312488432,0.107089642,0.221202668,0.2746558,0.095059427,0.162016063,0.295779175,0.217351308,0.401872687,0.300592424,0.347004835,0.343383192,0.340607156,0.35287641,0.359433187,0.156947884,0.413670901,0.229917793,0.195587485,0.632531629,0.276554462,0.3850287,0.464584753,0.373490194,0.270113273,0.232306908,0.315290221,0.218839266,0.254877713,0.252205114,0.189408838,0.323123503,0.217776518,0.216949219,0.270357356,0.23171525,0.157761006,0.171147244,0.148273557,0.09097272,0.182303698,0.297702228,0.446378691,0.174599479,0.221644457,0.241980967,659.1532673,2.137522647,6.410783936,7.25353774,11.79160291,11.80982074,10.15459441,9.778709795,20.25152733,10.09739119,3.75204251,13.14244538,23.72225519,11.64354663,12.23513309,11.02280829,6.411091453,6.589857771,93.53688549,104.8263664,19.92715331,7.722047393,16.4271504,6.236172169,13.99235746,93.06079793,10.19238648,3.941000829,4.939767088,5.449623626,26.63892075,4.911673376,10.29969142,13.21461514,6.650336544,32.0463931,266.1939304,9.198397882,11.50442165,7.012030176,10.58856492,16.94123098,10.97790492,84.84112142,13.93409422,14.32398288,99.82219805,8.631089616,13.17420444,9.83571611,14.7963564,10.14165237,12.53423427,11.3902884,17.86366556,7.437331576,13.67722692,15.50586828,6.836382234,18.10101949,14.83019508,12.85081997,5.757715582,34.73900664,8.45813383,15.07282002,1.141335762,27.85342929,7.024311045,25.80679331,1.902402893,12.56414666,11.82815011,24.78066999,16.1095538,74.78584999,244.8348687,26.44275033,5.667877466,15.02044492,10.60148232,6.096249563,22.83136017,12.84357308,10.25885136,9.19879053,2.784109571,58.581747,12.28998021,12.75797802,16.00809948,28.33736399,17.61715211,16.16205201,13.73144525,14.21719925,12.87125761,8.997805654,13.7475755,10.69899342,13.42193614,20.84419718,10.49964346,555.2045036,8.838882909,14.49257398,12.37413049,22.16819535,11.72558062,3.709391811,14.61717684,16.97391659,9.497673291,73.87130527,13.56469745,702.4286716,4.685473156,10.81512398,14.42229453,322.5565137,94.29028093,0.512712479,67.52269355,13.94192305,21.60280909,8.447882514,12.22752904,13.18842612,10.65509539,87.93229438,8.567561466,12.5424106,19.77081159,17.99566215,12.76685592,10.02247957,12.18296778,12.44632234,15.10182361,12.76815502,12.51041852,19.65352879,11.04509056,18.18286423,44.09520506,6.893831383,10.99100259,115.2559351,10.33115955,72.7747129,10.48697761,16.15300889,11.59938447,38.3173663,11.48477545,15.52847026,9.972700051,10.88073929,3.628250727,16.13120554,3.313731913,13.98982776,2.105673211,11.20999391,15.56989604,10.22857198,14.10105547,14.83320081,10.23962895,11.33276994,11.39821724,13.33120841,12.27904583,28.12691223,12.01523526,11.83770018,17.2044399,12.06831595,10.80381644,17.36767906
7879,0.267639083,0.252727486,0.254969977,0.257596253,0.265644086,0.259051531,0.304843936,0.30948676,0.295053681,0.27933302,0.310137919,0.291836132,0.335887257,0.300836412,0.297043754,0.285260234,0.11754025,0.255087896,0.284440129,0.154724376,0.226148078,0.288009756,0.2905961,0.24284938,0.271317907,0.29580658,0.319575124,0.292096653,0.188920378,0.291558812,0.122765175,0.17033089,0.331926235,0.303040318,0.278227076,0.316289479,0.304551902,0.33367911,0.265731996,0.328246529,0.278691464,0.292088875,0.262982655,0.255372989,0.283825029,0.290296865,0.292583047,0.303577881,0.238849761,0.114397845,0.281003214,0.470502771,0.409939389,0.589436011,0.090007618,0.245353118,0.13211712,0.3032319,0.468411692,0.426758779,0.382452301,0.166731533,0.311754943,0.34186102,0.308456369,0.279258432,0.387539207,0.479347785,0.387319876,0.392775613,0.343108179,0.28153446,0.302279093,0.281439059,0.366468512,0.417917418,0.295006984,0.390299688,0.401501494,0.303449968,0.275366056,0.360536741,0.25058435,0.369935687,0.384557191,0.326208785,0.28547762,0.346037193,0.370573592,0.230932861,0.277089521,0.274897346,0.220840754,0.061924972,0.06598871,0.054099683,0.06954207,0.069450182,0.093711622,0.177404397,0.129451183,0.159055423,0.312540668,0.263435029,0.094931474,0.136878179,0.183466834,0.139838793,0.23988647,0.289303501,0.241941514,0.420232872,0.263298745,0.315897773,0.261590589,0.189887747,0.290581981,0.242711841,0.278684308,0.276040087,0.258617498,0.228634519,0.289970479,0.239534545,0.279757427,0.218315618,0.228325396,0.258442042,0.241343655,0.145797132,0.217037625,0.245380078,0.207688386,0.238833034,0.259972378,0.256359107,0.251115006,0.275169793,0.231472889,0.273403012,0.268168162,0.275032734,0.212442284,0.253817644,0.24485932,0.241004423,0.239324242,0.17713953,0.259842159,0.269362949,0.261031608,0.266822227,0.263032731,0.275671152,0.230692333,0.259385944,0.263495005,0.086502852,0.120186871,0.196459718,0.298372596,0.255191914,0.277782682,0.256502337,0.239898364,0.245217388,0.221360091,0.252472109,0.253797975,0.240157957,0.27339999,0.245867623,0.23587377,0.252562961,0.277990247,0.236848032,0.221994514,0.278188886,0.244339603,0.272352616,42.79753229,13.78028152,2.808888632,12.35168917,12.84312461,7.13562111,12.85914581,90.39372508,20.53912915,7.355417096,17.70160382,13.85944722,14.79172705,12.77142521,13.41814749,11.63728215,18.59568782,11.90956479,13.08912187,12.51187151,10.91480135,27.7131536,16.33418687,11.40660728,15.06765476,12.5009227,19.65074379,16.03244488,13.975816,12.40686472,14.99942915,12.73708652,2.681701306,32.25700031,12.31404141,8.831008826,11.9560491,16.65878969,34.95731964,7.779937428,13.16020675,18.13126763,3.2912765,55.93176808,12.51516145,12.72979544,19.69311223,12.11042997,13.11036616,12.41388201,13.6048433,59.46120972,11.75739215,17.78467237,11.63919862,13.42045603,13.02284886,13.5757468,12.83112089,14.77849659,13.24330182,13.35688518,12.40076289,21.85022242,3.518222753,376.7929816,3.711772749,12.84444913,4.392530595,9.45456959,10.40071944,14.54316258,12.89475203,3.539630784,22.16170393,2.317379508,15.17660273,12.98909751,1.411296047,12.94412952,14.28212204,12.67885064,8.854230836,6.773533954,105.1221915,15.59995656,2.492752868,16.21099283,349.1595946,9.926296528,16.27958453,11.69691418,9.037313058,13.2899863,13.0028163,12.77629611,11.71530475,12.87581257,13.60977088,11.54400236,12.87569783,4.882039665,13.64503581,8.09702938,13.63747056,12.70619835,71.40944718,12.4723547,15.21159172,9.857554737,11.90449013,12.38154554,11.56131603,11.88329766,15.47782038,15.60000751,8.010763296,5.572834965,14.19616704,10.27815407,12.59132458,0.915486252,13.73579133,13.84279675,13.65856498,15.83828671,20.13994656,8.571005555,10.28115588,0.504923549,5.774102071,65.47979575,12.21278935,12.68728629,11.74336777,9.639395512,12.5154149,10.75866225,10.67629818,17.01849366,12.33038945,17.93736784,13.61095435,11.31165353,6.106402356,14.49900387,13.25660382,10.38726784,25.91484646,12.5394222,14.72512948,14.68896041,8.631788997,12.9520224,12.34778459,15.90504484,157.8614707,10.65013849,12.20928182,12.63169036,12.08925996,12.02778765,9.140407435,15.1845152,16.76004309,5.196734924,3.950785584,11.941956,16.03214286,10.06701122,15.20871903,3.212511904,3.054225681,17.1638627,8.368931147,9.246459248,13.45548773,11.17655058,258.1352012,13.21605193
7910,0.14118707,0.111701414,0.134911625,0.145301044,0.145534239,0.168933918,0.099118312,0.114884427,0.10354894,0.114036951,0.107490828,0.084938935,0.100836281,0.113862911,0.109893605,0.108085373,0.088206509,0.094111293,0.07488607,0.078690219,0.104554992,0.132330238,0.109341702,0.122280743,0.105098375,0.090361454,0.105288001,0.115042946,0.166523261,0.227174941,0.246395364,0.289463944,0.310722776,0.263853907,0.147404998,0.138004716,0.096489246,0.12364851,0.137537339,0.144186793,0.15168352,0.091811488,0.322390665,0.220249237,0.186359177,0.256388243,0.357037918,0.302228733,0.189664926,0.230498499,0.183808477,0.21298649,0.159811317,0.140913584,0.206614121,0.309099859,0.192545751,0.360235579,0.240959016,0.111937236,0.166494353,0.171826295,0.146910421,0.165353828,0.184145932,0.139873578,0.110861,0.198663548,0.206364674,0.220022411,0.348422795,0.425438768,0.191661959,0.161956482,0.180581586,0.165334022,0.17019165,0.191540953,0.176812712,0.159054054,0.151465796,0.182740364,0.174328713,0.152530442,0.157612227,0.152178293,0.110143917,0.169521062,0.09188901,0.101018398,0.071647519,0.096561395,0.087296264,0.094807616,0.078762037,0.123040135,0.091317,0.08200678,0.090334833,0.090492351,0.139534841,0.079020065,0.091286454,0.108990167,0.088039326,0.055482617,0.08581446,0.102838647,0.100079154,0.082926225,0.08461385,0.088598512,0.052588015,0.07528547,0.061566777,0.075177141,0.097594796,0.094786948,0.079254342,0.091752031,0.096251425,0.057071542,0.104556051,0.07397483,0.063651699,0.072658975,0.082712878,0.08983133,0.116522054,0.199753314,0.089863616,0.099345391,0.09009186,0.085985647,0.081708399,0.096467771,0.090532055,0.103323616,0.10047859,0.0978548,0.091491681,0.09514637,0.073575976,0.099067973,0.099623655,0.064913804,0.077920273,0.098594702,0.107608977,0.099415167,0.08714338,0.094900311,0.062524878,0.062922409,0.066600833,0.070830694,0.066810481,0.075526062,0.058536439,0.080408051,0.082922191,0.106379469,0.092433936,0.104079268,0.090551079,0.099598525,0.098897885,0.100982787,0.10234105,0.095311413,0.112922223,0.093885361,0.109704141,0.098169398,0.060705574,0.076331703,0.05310522,0.067893613,0.093360154,0.105150217,10.09048257,13.71981895,12.25335374,12.22372003,9.344933066,9.226571704,19.19644335,72.02063629,12.44775012,12.17943331,9.713446524,12.86143913,11.58077528,9.539830149,17.72107723,17.17399663,11.99529622,11.83159714,13.96675914,12.58193557,13.32407617,12.69110387,16.90779994,14.36091473,12.92436372,11.68236772,11.96488463,12.86609491,9.851421292,11.30985914,18.22519334,19.47356005,17.56781193,7.908626732,13.56607726,12.45722971,12.66411061,17.69096523,13.16855357,16.45384282,12.79950184,13.43143663,17.62623293,18.94613836,77.14478813,9.973814074,8.385544737,15.36157311,23.19324027,13.06860541,10.84189778,16.5005688,11.90805997,14.15045798,12.26369317,13.1387455,4.190063082,16.7259941,12.33936366,12.71189424,13.0384888,12.87466458,18.94237418,20.03306471,9.116032849,11.5594778,11.19828435,7.142061805,11.85322656,35.73552374,15.3754625,36.42095106,12.08976848,37.11607376,13.27086445,16.91492584,16.7103328,12.80368404,6.607842423,13.69016408,15.32739931,12.6429472,24.6562134,14.27035674,129.3673892,11.61567971,10.01971801,13.12846381,4.199041205,7.906293973,7.931811672,14.78453791,12.8815906,7.891044451,11.74912598,12.45763676,11.80045724,11.24368473,11.88636366,13.37291782,10.78718709,11.54207782,12.23643478,9.771292114,11.63313798,10.12033596,14.34018131,17.12050406,12.10835292,18.6159861,11.16814506,10.92423336,11.91631183,10.45190031,4.100472705,10.02413937,11.47109498,11.17118615,5.332638773,14.14592895,16.70448623,10.98115172,11.01303025,11.18606758,30.86791579,6.708936377,11.11673834,11.18715311,11.60142976,15.49884881,7.615174809,12.94681067,11.44144516,17.50194627,17.41515216,17.1077503,15.96049002,16.48952581,14.28247583,10.52248477,11.78240958,12.08717248,25.10772294,10.72557759,11.31363128,10.12392094,12.32850044,16.44731775,11.40161315,14.72629713,17.96543509,11.7855559,16.26163817,15.21415275,13.21350842,13.2312492,11.69482982,10.72562943,11.28226111,16.21056993,11.83438605,11.34970806,11.86790559,10.53949892,34.16016185,12.55302945,12.63866034,12.24851802,11.2329261,11.88611552,8.176543943,11.79463877,12.13622652,11.39305507,10.27652072,11.542458,9.481918863,30.12155803,11.52123531,8.275443727
8215,0.133180065,0.133754071,0.152399201,0.170697627,0.137249576,0.120795743,0.14646967,0.102431386,0.130234746,0.136326314,0.136479399,0.125381295,0.128383627,0.130955587,0.153934857,0.132219666,0.135208707,0.163710241,0.139986715,0.130823625,0.12539678,0.15904873,0.155825095,0.131400155,0.135480309,0.139521264,0.141233993,0.150207497,0.153747526,0.134985618,0.128925455,0.124155344,0.156846156,0.126742752,0.183230934,0.203190537,0.162853446,0.154850722,0.182986214,0.148345293,0.236196861,0.161143758,0.134910937,0.145904728,0.144425489,0.151845356,0.18812708,0.185430972,0.137307955,0.168051329,0.118539628,0.118669775,0.198643182,0.172530839,0.16232119,0.169617633,0.133657534,0.148723955,0.190758578,0.17720872,0.152296726,0.195968162,0.171571289,0.175125497,0.157621822,0.180774517,0.132985294,0.165480606,0.134141838,0.174505376,0.183044672,0.15939953,0.155338152,0.182748971,0.120375322,0.182616101,0.202740756,0.163555188,0.165992846,0.168419673,0.153808706,0.150092844,0.132065544,0.143098442,0.161229422,0.153184777,0.143336128,0.176175955,0.170223736,0.164358268,0.131017791,0.114811752,0.133154381,0.16034265,0.15678203,0.164880622,0.162497073,0.1386383,0.191452209,0.152643543,0.143885892,0.167337209,0.146883527,0.183450581,0.127716963,0.128146766,0.129798423,0.162710199,0.149879481,0.190765256,0.081438574,0.114524511,0.116824161,0.094697861,0.064363112,0.084724064,0.145484382,0.210523454,0.146954578,0.082014458,0.178903418,0.13013119,0.20272583,0.161839979,0.186382457,0.16043301,0.129032189,0.168680351,0.136489765,0.064240066,0.157579027,0.20006353,0.174957045,0.210328208,0.185543539,0.222667629,0.204587544,0.197868083,0.198600596,0.212122202,0.177221277,0.204817604,0.19010421,0.13724619,0.219978485,0.193671334,0.201142436,0.105021188,0.118854405,0.168688831,0.206083815,0.205564181,0.125713709,0.073064446,0.143663327,0.158774882,0.161344557,0.167432944,0.168454499,0.140916229,0.110773304,0.188517339,0.224344791,0.22475737,0.176931036,0.202820596,0.19782959,0.213998062,0.20128677,0.212611947,0.223564551,0.216669944,0.230510695,0.222124845,0.198981957,0.199904515,0.220408761,0.213072388,0.216738487,0.203863116,18.7137562,19.60286905,2.423870754,15.45776262,9.128742563,10.19210539,37.23568625,3.849016811,21.38519423,47.92137694,17.31719204,32.29812511,12.48329438,4.980410582,10.47339714,342.6581161,16.36851741,130.6186703,14.74105405,16.44891853,15.54322752,38.42224569,25.73536624,11.02021623,19.44422304,2.0920544,15.97241504,16.6310539,8.920066901,15.68702224,30.97811131,24.66132468,12.29114505,18.00901865,11.58574257,18.32861548,10.55945545,13.34366221,14.20358346,13.02630046,12.42343792,9.63227597,15.38788582,13.0375349,22.73823153,99.42843688,10.38012322,16.1263052,11.23423778,11.09986106,11.13540845,5.386127526,2.041785944,11.41121209,13.61581244,12.42091681,15.75682239,14.28245496,37.71358685,11.71455506,8.253953601,19.98762792,12.22549575,21.71766947,12.95847934,19.44711264,10.83122874,42.98493618,19.4237737,17.41431884,23.38882656,21.09693566,17.7620189,16.45497484,18.7258706,4.119867315,12.19233324,5.528552038,10.60504173,12.75832982,33.95366862,6.337996798,13.20814201,17.23621843,7.706128246,15.86166156,11.60179683,9.913040686,12.16064927,15.96613944,0.162029206,7.636580399,19.5690819,10.47012925,21.39649388,8.670820358,15.61595274,2.791747011,15.81493614,58.1167505,14.24445864,18.02542435,16.31709782,10.47500883,5.571727613,16.49591306,17.45473663,22.32954454,12.33528049,3.259836888,8.640380039,5.169702084,11.82056275,12.74817219,12.7251373,4.321712638,14.25673555,11.51694102,22.81150075,11.64774743,10.52371108,10.56813872,1.031467929,9.982207133,13.03983915,13.42301573,22.2843019,7.752953567,14.57255105,13.3551702,12.40308735,28.61898564,97.04269568,5.348715446,14.84537047,16.15708242,14.08485865,14.7969254,6.692676208,16.61498369,18.19596383,100.29604,27.89200006,24.94742807,140.1567909,14.3106146,12.57675448,16.00588341,11.65149336,16.94971546,16.79874737,14.56703877,8.228951929,12.9671292,12.30161311,9.592845804,12.01307089,16.39848232,6621.294617,11.87266166,12.72376125,5.583773995,34.30546914,16.22362351,3.21740571,5.609427713,13.66357657,19.14832266,15.48082546,197.4018824,9.078282927,13.90737151,9.574925586,24.5567542,15.89720877,17.73551174,20.66443435,6251.363943,17.44864269,10.31629267
8219,0.185750775,0.374345979,0.45236086,0.360489425,0.180363489,0.425305653,0.336354825,0.336191219,0.445622522,0.549193349,0.516062099,0.413299799,0.509193218,0.353139602,0.505415842,0.271900605,0.462373759,0.711480632,0.686046899,0.466301523,0.342296385,0.483882292,0.585493825,0.194994434,0.195222443,0.410783309,0.318176145,0.338635514,0.38183839,0.376790553,0.335927009,0.542741917,0.34497664,0.345196139,0.429318446,0.414661347,0.323462162,0.365804144,0.351319182,0.352477756,0.328623334,0.315723494,0.382638562,0.357785967,0.164545705,0.381000436,0.353658772,0.325997849,0.359701373,0.312539727,0.366613807,0.297409233,0.307399155,0.288536735,0.2842114,0.32288079,0.31296755,0.297348456,0.315385203,0.326781943,0.342104506,0.30954774,0.281064138,0.326022106,0.376621083,0.509751475,0.322517491,0.361308744,0.412684166,0.294016798,0.318024138,0.419931966,0.347328334,0.364317641,0.306017838,0.224460385,0.306826028,0.158175055,0.257366443,0.387478586,0.261969937,0.314455293,0.306801406,0.403319747,0.272730523,0.407750022,0.331257159,0.368178386,0.337630349,0.165797653,0.142452457,0.360751714,0.345270611,0.320445315,0.305028203,0.359810371,0.357549985,0.273964022,0.357915615,0.291477143,0.330860987,0.260425671,0.299203441,0.309058263,0.334637796,0.325325511,0.295373905,0.202436523,0.202634886,0.179007713,0.321676712,0.339328957,0.309177707,0.292866356,0.323691984,0.303215789,0.352590335,0.279049497,0.302103265,0.303953564,0.2951215,0.266646255,0.270596324,0.323656151,0.343878813,0.31328725,0.33749707,0.315263978,0.328493314,0.269082039,0.314118517,0.263051648,0.155698466,0.291485507,0.153168893,0.178481212,0.319734794,0.238783208,0.300707639,0.256406318,0.224324507,0.104667298,0.286395478,0.277746856,0.311418257,0.312070227,0.324628326,0.247790632,0.161715285,0.216310022,0.25664329,0.357074886,0.275499873,0.207353045,0.267135651,0.265654392,0.248858468,0.29237493,0.285688332,0.313676976,0.291391799,0.27321881,0.198280338,0.157244882,0.15330279,0.206226311,0.236132505,0.296051367,0.354121385,0.244889713,0.272968028,0.308689767,0.305288566,0.269662597,0.333821819,0.279244891,0.328909664,0.263001117,0.311968345,0.249677969,15.40898216,12.99086159,19.06845097,11.54480591,12.51870447,15.53845669,10.36723848,46.75831634,15.71877625,7.681542911,5.277945324,10.82978825,90.59298103,9.844213627,8.731064992,15.75475364,0.975143555,9.749336362,230.9294922,6.567537743,467.3297144,7.437900016,11.9479203,46.9993004,26.07788481,5.21324844,16.67525703,30.51686206,11.1798477,38.21474525,4.689153943,17.6492502,19.41158019,14.18714144,11.34632924,3.205359257,15.37939829,11.33722126,16.25277068,16.10012217,11.27636766,28.23410281,11.133655,14.50099144,1.492126276,15.50229149,13.06421579,19.42473248,18.78056178,39.34252943,119.2595798,0.475340582,5.706882688,17.71455007,16.91223115,16.26234717,22.04047986,21.52753266,12.29271408,12.39493606,7.238731374,27.1706624,30.76449064,23.75620492,384.2585614,13.54088497,45.90898486,15.75862322,17.49502825,30.03554374,37.34425265,12.68837451,117.9083813,82.41394414,18.81149066,31.39568836,12.56662101,10.72278587,28.47435882,14.47558122,38.51829914,19.44480122,698.0081058,28.15958553,2.960304463,14.99320072,19.6925346,13.86073693,11.33118655,11.22833373,9.892576601,16.05933448,9.942124604,8.874165125,14.37787801,15.24063252,6.036338395,12.8646005,15.26686456,13.5832852,16.93565876,25.01007666,21.74268023,16.56484462,13.01492651,8.975981682,10.98528784,13.07642362,13.0929978,4.798528662,14.74232485,11.68870653,13.14587509,9.576759341,103.0198732,53.88990349,9.795019858,13.12955277,9.623608821,2.776064926,2.66304135,18.93043252,16.22871972,12.3608703,29.74071882,15.60191043,13.33362661,9.062164904,14.03991958,37.79666978,118.5450139,12.29236892,10.1267588,6.143179231,176.1449627,10.68324213,6.733871575,13.25863787,3.738257724,14.27780032,12.20984005,13.23852971,13.76427914,2.401315167,14.1463562,13.25541072,14.98495358,12.2090384,12.1149701,22.03096517,11.24987558,12.90366967,11.47498672,12.2245862,13.43812882,15.06332764,8.58364252,13.06713375,13.4481906,0.795600481,23.64603417,9.520962605,12.12247481,14.19163676,11.8661182,12.42269704,16.8497949,13.62263843,15.88019003,17.20735227,5.46118619,14.01828171,16.14977735,13.75328553,12.12546463,13.27046272,32.3946424,8.081725264,21.41271446,10.25233157
8378,0.229364632,0.215373824,0.220124955,0.240572302,0.170235502,0.249499044,0.166387023,0.217783094,0.192421661,0.219707333,0.246261849,0.17281932,0.23972423,0.261161294,0.198997939,0.214709207,0.208218907,0.245875718,0.274561555,0.229935719,0.230162322,0.224161737,0.231802857,0.213502347,0.186980044,0.194516257,0.217822215,0.224067805,0.200009657,0.205458622,0.225810869,0.226947561,0.238327421,0.224767612,0.201774878,0.22901304,0.292532692,0.378604269,0.218843404,0.172462574,0.179119888,0.196360552,0.207677162,0.169843119,0.189376169,0.187350306,0.186241002,0.20138154,0.191058711,0.181704795,0.164584225,0.2127059,0.200938213,0.178503656,0.208559982,0.172414909,0.181889699,0.170677771,0.168557109,0.149047812,0.180855976,0.186771769,0.203569553,0.176558359,0.204839401,0.133091257,0.188641389,0.194193802,0.162728701,0.176171498,0.172082905,0.179677817,0.171812895,0.173322082,0.152918386,0.173914732,0.168811147,0.192067076,0.207230963,0.144706832,0.185841694,0.163461588,0.165002147,0.195733767,0.16177997,0.179321058,0.164051833,0.149858289,0.16088449,0.168863042,0.186704907,0.19171601,0.192629194,0.163112974,0.174631631,0.164011917,0.156724661,0.157890311,0.182533944,0.173029058,0.188403083,0.190961769,0.156580755,0.265951522,0.296603341,0.298118699,0.276996992,0.256584863,0.241645966,0.197008662,0.198943428,0.198025142,0.251330772,0.216435071,0.228563304,0.25118711,0.204128113,0.223080937,0.236053085,0.200483169,0.17873891,0.208070908,0.202172398,0.214221937,0.215285153,0.221676047,0.223902711,0.205869814,0.205366038,0.207640428,0.194178344,0.166924852,0.212733976,0.236717681,0.214244516,0.18028606,0.218266331,0.320316892,0.236314395,0.218736162,0.288348225,0.276143074,0.263780824,0.272783133,0.222823012,0.234188306,0.223665865,0.207029487,0.194750493,0.238279894,0.21412303,0.229463779,0.2372962,0.212509192,0.203436616,0.193936988,0.238542513,0.200781271,0.244270105,0.207874028,0.202425172,0.243996128,0.239425097,0.272424332,0.236289134,0.176153066,0.193319167,0.204675449,0.186316828,0.207270967,0.260335072,0.214871556,0.187707819,0.237690809,0.173194341,0.200815523,0.205852493,0.167212224,0.187395076,0.195309033,14.32529805,16.32696075,17.00803454,40.99480276,0.420318383,21.91707226,8.766772135,56.20086894,239.1077841,3.381642522,15.98895707,16.82652558,1057.453551,18.02884839,8.278678972,9.458053925,0.99567256,2.539042742,6.029471647,8.337897855,13.9793066,16.16317396,5.724153065,10.30700084,11.85455302,2.164039545,9.080833734,7.99809137,9.017100236,8.911295839,9.24817366,16.80429809,11.0420341,176.0929454,16.69894402,12.63557481,11.15297265,9.145087167,11.31586407,10.80040822,13.0531615,10.98577929,18.83407833,14.90033718,14.84141063,15.59119421,34.5078847,14.86406877,11.13803073,14.38612078,18.55455207,11.2046213,98.0413315,10.01387023,4.194164711,18.28137988,9.7016666,30.91576252,9.385021851,14.15084727,2.598078063,27.98865632,9.307971543,34.09684628,21.42849629,10.31565506,11.90910175,9.741240626,10.01424443,6.905612624,9.068216887,13.89479692,13.1006756,9.636314667,11.75961203,16.64639721,9.527318741,17.99519443,10.18461337,27.08970811,58.47822072,4.391394491,62.8102702,14.05434006,14.33764065,19.80990598,14.34342787,9.87027424,14.93646171,14.19109051,15.2530118,2.08138131,16.91976297,11.85273025,8.006413252,3.183802925,19.5501671,13.30404418,12.38291698,11.81592605,5.333881633,101.034512,9.509174713,2.029573251,14.45577695,29.44118635,6.614592192,10.13307861,16.02771142,17.2695883,36.50715506,8.08525331,12.77432336,15.34449954,10.66591861,23.96905649,11.04050601,11.22061085,78.08812401,18.54978016,11.67353491,12.06190197,17.96452576,11.68099074,7.782849248,15.46334827,15.11322056,16.65552372,14.95790194,17.47762692,10.5018327,13.23594814,9.127291165,16.71648767,15.52409687,38.37550015,127.0503549,15.60657733,12.81534951,26.92169676,12.80653558,12.18663708,2.384084224,18.05953474,14.72160056,163.0363835,15.51155954,4.110531142,5.774469021,12.45742616,9.564015254,19.24737912,10.14035429,7.891515624,9.835480679,3.578590612,15.79650168,506.0183493,15.77127003,13.71213277,13.9806773,15.79813619,12.22635752,13.94324984,51.81449899,15.75685889,13.83032145,9.611004686,15.93995926,14.85137698,13.68013588,10.14517567,44.0531528,1.072404303,13.01442246,4.85847066,0.884363542,14.95142922,10.31931886,13.25716293
8405,0.163880951,0.20768882,0.196246394,0.193180165,0.182488572,0.193472176,0.199077727,0.207180638,0.197898312,0.20254924,0.188035846,0.195216585,0.191024569,0.221527658,0.142527964,0.131762742,0.155793497,0.208805637,0.211523711,0.170576005,0.172822437,0.150248715,0.177510631,0.190975098,0.143884607,0.217120049,0.197116582,0.128967504,0.216640382,0.230931871,0.2134279,0.157993373,0.131128309,0.14961713,0.184791681,0.180580286,0.162464767,0.216915959,0.15377794,0.201241733,0.15324612,0.189839036,0.169086478,0.199160094,0.196203209,0.19076643,0.205850403,0.150215857,0.154425889,0.150569203,0.215098787,0.188703352,0.179505604,0.205340797,0.234498783,0.2357957,0.181065485,0.213709392,0.173998564,0.193851354,0.196901504,0.188661446,0.195103438,0.176965641,0.145722939,0.14749949,0.141615451,0.230051793,0.228965537,0.184899957,0.197373938,0.231360857,0.200948267,0.228680503,0.180921205,0.236685591,0.207462546,0.190512454,0.234203745,0.206877894,0.191256514,0.158609229,0.117458755,0.112449798,0.152641708,0.218193884,0.227944507,0.193289538,0.211411471,0.187749875,0.201825827,0.208752601,0.198127319,0.211757816,0.200759047,0.211853594,0.190593594,0.198914049,0.110497237,0.110067266,0.138843864,0.187278857,0.213689024,0.194033495,0.195926663,0.225479438,0.210227284,0.177453195,0.189791887,0.192763492,0.193356788,0.194131229,0.193190797,0.195355256,0.121654106,0.102495434,0.122125956,0.194309529,0.190783135,0.205949382,0.211708284,0.197008262,0.216959823,0.189202418,0.189382775,0.197451369,0.186583633,0.187133179,0.19391177,0.191022454,0.139074428,0.106466032,0.110781993,0.186155408,0.212706844,0.20178867,0.208947161,0.209721984,0.210500991,0.211706289,0.20866022,0.218068342,0.18369606,0.194806126,0.218311523,0.192800935,0.188045485,0.140729721,0.110384715,0.13249773,0.231531423,0.197087887,0.184939982,0.202804023,0.177912964,0.217957394,0.195111987,0.215134239,0.189854438,0.184893403,0.206914123,0.194829442,0.193969989,0.165209462,0.108741581,0.102046531,0.134549307,0.192724335,0.192464356,0.196845369,0.215248314,0.21312438,0.209575555,0.191788447,0.187864325,0.197745198,0.198085135,0.176376887,0.193686042,0.191791822,12787.60731,16.99437798,13.36644666,17.78142607,18.88327444,20.50730396,16.01481586,54.43821789,11.04878414,10.82968788,10.86676549,17.58716193,63.9305202,16.59996271,18.88296307,21.68670256,23.50699061,20.81123051,13.3989855,11.60333926,13.37541877,11.17796717,34.38188386,7.839062408,13.86989478,21.44762175,16.46915615,11.67862367,11.74508935,10.47955235,7.533318133,3.717609886,12.86742797,19.65677119,14.50566688,23.74660933,11.42886224,8.480712783,11.36365001,14.17372837,15.42879537,13.93927055,13.89255028,8.534082166,11.04806317,12.30642293,11.06039199,12.31860319,63.73967587,20.9213609,23.25656913,11.16667993,13.54931683,14.98007756,10.20705681,16.82134541,7.969374721,6.124437602,10.14593312,12.46257606,8.752458403,13.74724734,15.37273865,14.43330942,14.58886997,116.5976566,2.854121047,26.97510738,15.23399164,8.66201467,33.32901921,15.07193799,20.76893011,11.85918686,9.636577296,24.302784,14.38937221,7.626038484,91.23935105,25.29764353,10.55716053,17.89039845,19.43568155,21.85233438,18.06229061,14.75115548,11.85157297,14.64303122,18.31869032,13.30221768,16.61924746,8.923921747,8.369844485,4.699567444,3.996550643,8.548439946,14.99931191,13.78341396,5.137745888,84.44827972,25.46987826,15.35726966,9.946979602,9.754978729,9.542069636,13.34038882,16.35751931,9.200919588,17.02608365,1.017264729,11.44545382,8.992486887,7.998070496,17.36810546,14.10349075,21.56631867,1.974723398,13.97224234,12.81515983,9.953582013,31.03441098,12.2222956,16.15721903,14.02445059,16.22277197,12.75861825,9.333103513,12.19582368,18.87680282,6.836706173,14.63626794,3.703009353,4.061299253,42.91262388,78.88623534,18.39736716,12.1162425,15.47490451,8.318557425,10.88075852,5.91791828,16.04316523,10.26615068,15.99709177,10.39277879,16.7034472,9.810538565,16.59559694,7.165241717,10.01583811,19.0355081,11.09121666,15.19026214,11.81472448,7.094193732,13.57590431,18.26869878,2.890517974,20.6161229,12.5252173,16.73588124,11.81790838,8.043915964,85.28166224,13.70148004,16.32202661,13.92272861,12.41384264,17.59250875,12.89815453,10.73816763,11.58429404,15.85337333,16.64175721,18.23610492,6.742281781,28.65744022,10.65371888,15.62447294,21.23434197
8434,0.242596638,0.170271933,0.225825353,0.271583214,0.224346917,0.217471248,0.250967464,0.212715445,0.238612236,0.248934758,0.247681398,0.211265454,0.246667827,0.216420606,0.242226744,0.256512024,0.249584475,0.237072366,0.267006909,0.237776372,0.21159435,0.249943539,0.248184625,0.24034585,0.235327229,0.223654213,0.229298982,0.228871429,0.238841804,0.236466956,0.229710254,0.246901911,0.249360946,0.23691612,0.227671835,0.230947401,0.207861844,0.226784709,0.219144935,0.214828687,0.227765941,0.224262568,0.217601161,0.232909241,0.240372597,0.081790674,0.19375343,0.199148993,0.191149918,0.180730937,0.19212605,0.183783606,0.188201039,0.177282549,0.20512803,0.105054655,0.188248618,0.1215008,0.149769002,0.148952515,0.158173364,0.143757032,0.138643162,0.150830425,0.197578621,0.179942623,0.170520717,0.192813021,0.180343476,0.191401674,0.180231029,0.195069005,0.162905615,0.198836064,0.188949859,0.188384913,0.191231431,0.185254646,0.185713543,0.182555804,0.157995552,0.192892081,0.172230527,0.188187697,0.172061936,0.177958868,0.183266563,0.180586666,0.180633492,0.175841436,0.16113767,0.188304163,0.193503365,0.190564831,0.166816817,0.201095174,0.173558196,0.188654693,0.169758903,0.191785251,0.177473266,0.199827908,0.168429496,0.184285211,0.20604105,0.200626804,0.19578103,0.197658656,0.20863876,0.181035588,0.202426009,0.205345705,0.201089921,0.198900971,0.18184513,0.218883031,0.184249062,0.181753993,0.190916276,0.193957994,0.18286444,0.203833859,0.195197652,0.188900412,0.18840312,0.19542299,0.170609219,0.17256442,0.206333927,0.197606387,0.186890298,0.147566091,0.193151666,0.191218097,0.145664684,0.198180542,0.224183493,0.232877953,0.326903822,0.292476949,0.151572577,0.232733154,0.225017657,0.222898126,0.227940154,0.261173068,0.210507416,0.097874431,0.203001482,0.208640033,0.178830325,0.174108564,0.158190969,0.216847359,0.160810477,0.224457393,0.151821261,0.234935454,0.221794942,0.226292909,0.230541779,0.257238068,0.225485903,0.250787114,0.227973453,0.227397555,0.234324049,0.251838853,0.240794388,0.242263795,0.213067424,0.144144526,0.067137397,0.037133839,0.148710379,0.213035746,0.21345407,0.192032842,0.182677281,0.138552432,15.45864266,12.22903206,19.08634321,17.59910532,18.39006784,13.64495251,16.21371998,10.09143223,12.27304263,16.1101128,13.83327938,3.056091148,18.66493481,15.51085968,12.10602882,5.448276829,13.74522678,6.635856627,14.31315346,16.88569388,13.06565733,17.93104336,11.29087696,12.41343983,16.72628066,15.44066443,15.58166694,18.15671674,21.70651679,16.25907066,16.14543963,16.04033261,14.65974786,14.13005799,17.67128831,16.36777963,19.4139722,10.61405647,16.9633791,12.64025784,13.90351325,13.4412327,13.87180005,17.69204746,21.57450026,15.02004959,15.18656649,6.508278599,17.22070009,5.429671826,13.26888003,14.88433293,5.748876095,19.1378988,11.08166986,12.71889661,17.51730962,13.09182154,12.70568375,13.47417979,11.78925355,21.95505713,12.48155472,13.03333176,15.99972818,11.95283653,12.82582237,25.57145025,17.77886482,17.31391288,2.491772127,16.39953272,23.33074851,16.64286206,11.68179438,34.6460182,12.32462941,14.37963326,15.42034235,23.7507627,14.8345215,5.954290007,20.50866987,19.99609031,18.84155469,31.27183117,17.75118426,8.429448563,16.89170303,13.01795323,26.7359777,13.23046448,25.35990909,71.43172436,2.130826514,11.08554923,4.965874778,6.078020514,14.1204918,17.34689739,13.84817014,5.345301833,11.9616533,13.0540094,13.56930672,2.237695718,4.127516154,5.191882611,16.46745207,3.19673467,42.6325164,13.79217044,8.394898218,14.77603528,52.31697386,11.53580958,16.09197382,19.23408289,17.09066275,44.83147298,62.38428504,11.25766491,13.92085102,18.01392442,19.60207188,13.96165362,3.979343896,25.74420613,12.32286582,14.83107068,15.21229153,14.35736989,20.39343893,16.43177403,7.01464008,13.43821656,20.90930205,15.77483186,15.60902206,14.96514379,18.89942808,14.25229597,20.18378122,37.47576505,17.18227106,15.19324337,13.49348303,6.431013537,18.50326015,15.54693446,1.506011915,60.87213608,13.71613356,17.37030631,36.91609528,13.42997201,5.753986792,34.5988122,8.61109527,11.85526736,24.52304079,4.465549956,177.576311,13.10511794,11.28854651,14.36447187,14.06145961,5812.498589,4.409244455,16.7286524,16.47027671,13.93474253,12.10977276,12.01352377,10.77922717,14.50177833,8.372699241,12.22691982,9.68604827,13.93834618
8455,0.212096869,0.235662551,0.244785113,0.235875167,0.230001874,0.239866344,0.215109513,0.23269513,0.24031151,0.219299315,0.237654207,0.221288785,0.227961061,0.22180108,0.200673895,0.240225114,0.243080344,0.229984308,0.229696219,0.232606182,0.236048367,0.218065255,0.219823253,0.240439157,0.236566883,0.222178278,0.250330741,0.239999789,0.243315408,0.249056083,0.230598988,0.249016341,0.236210572,0.242714719,0.248589147,0.260591849,0.234868852,0.23985902,0.24098807,0.23520779,0.218927963,0.210919345,0.201891734,0.266323872,0.184825304,0.272807144,0.31445622,0.315859734,0.299170449,0.303171609,0.322044506,0.301527367,0.296666112,0.313361133,0.108044492,0.277785831,0.271668347,0.086671647,0.29820054,0.269744955,0.285798432,0.27893536,0.302764344,0.311564602,0.316276936,0.314307454,0.280257108,0.253977026,0.071198381,0.275173863,0.265844572,0.301561047,0.28249373,0.083431414,0.147577651,0.245843749,0.286701733,0.246312309,0.24818026,0.305945467,0.293658685,0.10560387,0.218665211,0.290546141,0.229419825,0.260707797,0.250638142,0.238955284,0.238773836,0.255397393,0.257671441,0.289573613,0.257865493,0.244949089,0.23078822,0.24684935,0.273529178,0.287480998,0.273747641,0.255287452,0.223813955,0.251517833,0.280818402,0.24236743,0.292766005,0.263403634,0.195327639,0.264421775,0.216299274,0.24554057,0.283140051,0.265634398,0.243245494,0.257531535,0.275034035,0.23334956,0.245415789,0.208011117,0.208542514,0.229791425,0.224482379,0.21463265,0.244776245,0.244298235,0.250519082,0.238936163,0.251954414,0.226788949,0.236826755,0.223743681,0.250655328,0.241938636,0.247603849,0.244852129,0.250821694,0.240887317,0.239899921,0.257547087,0.236872132,0.245270362,0.257006697,0.241645105,0.249481763,0.242297572,0.215373017,0.261829703,0.251138033,0.226229846,0.243879152,0.257246565,0.24289728,0.244136825,0.241673831,0.227457499,0.235927214,0.224496208,0.228308928,0.232312366,0.186922794,0.233338296,0.249448307,0.222016821,0.234857899,0.246986911,0.235529332,0.24224704,0.246770999,0.227898498,0.230678947,0.210093613,0.221239147,0.233233437,0.244524773,0.227700978,0.240705375,0.234889333,0.232621437,0.258751494,0.232179933,0.234909332,10.71722965,10.90704698,15.79574284,18.07696769,17.62556112,13.00565609,13.81341835,13.51170371,20.90578821,11.55774431,24.43897835,10.26317772,16.42999263,6.804571569,15.79992853,18.2091609,14.03681045,38.23332677,15.89487621,22.91384689,18.91124136,5.686621845,10.84276202,8.235928794,14.102164,5.982284637,21.86539371,24.21199621,16.82219478,13.43599717,50.82052983,8.248737337,31.74107224,14.15889589,53.69570156,25.98637865,5.340285557,11.56125688,13.24014642,2.973389707,10.67167548,11.11084694,9.923023875,18.42065153,11.93132959,12.1026422,14.32173703,13.8209877,13.56070881,5.217300988,12.68593324,13.04959145,45.10888039,12.82015128,17.95436969,25.93634532,15.93762468,11.93896791,18.12327488,41.10914784,12.95611293,16.19490404,11.7160221,11.18466437,12.87564715,20.24001314,6.838618416,6.463117545,12.29437964,11.18173883,17.42460719,16.57833828,11.63496577,5.704834291,12.34107883,17.7090252,12.23860803,17.82174963,16.28999222,4.666107143,16.98009579,19.03441559,11.04729995,10.43076786,18.79356667,7.921161935,14.93320056,21.26050201,18.98131997,27.36861165,17.5019246,15.88827427,9.752193275,14.15903738,18.35678009,17.31104105,3.233057509,0.095614472,13.57169507,17.62129276,52.72471671,5.49530152,15.12872104,13.12706309,12.94713971,17.19194213,10.43084936,13.00624933,0.911403466,10.22582643,13.58074809,16.94850503,11.81755079,83.03147076,10.83293687,14.27736644,21.99008662,9.743709992,13.27620306,11.91130291,8.604622794,5.707948298,11.95585392,1.343085155,15.38216055,11.81328125,9.624427783,16.44428027,13.57503758,9.129031969,14.67039331,10.93920479,11.80889548,10.51551052,2.947333959,6.44406022,2.04495887,14.91924972,11.77877381,11.79758462,10.11102896,12.3688765,16.98941834,13.06797584,17.61479297,10.05177961,12.05359253,11.4401482,3.82229907,22.14480698,9.590454153,11.57342804,7.111094805,7.032066118,10.06961334,15.38246441,10.7708877,14.77053175,31.37297996,15.38022525,10.3610701,18.80658548,12.33435918,84.8728411,10.98685152,10.56700979,2.527529737,6.109841074,6.591191788,1.232376817,39.39957312,15.92339659,16.76871183,19.59104803,19.18944284,33.56207367,11.89719644,15.29216993,11.96830748,13.77814522
