16265,0.10027721,0.096654012,0.0925927,0.089459839,0.090447794,0.091246428,0.095764513,0.113565166,0.110275283,0.114388583,0.119007728,0.104682362,0.098967977,0.110387778,0.08984299,0.105987545,0.098051943,0.098047175,0.090695032,0.100676564,0.093548708,0.093057567,0.090478776,0.081812363,0.086218991,0.091696618,0.088540527,0.108072807,0.098320817,0.135359803,0.192225759,0.18144234,0.104915719,0.127846855,0.127260225,0.134744487,0.135214862,0.111303267,0.143351185,0.105008859,0.082898623,0.107954406,0.100121511,0.110929179,0.142438088,0.142073918,0.147968572,0.139504278,0.161179651,0.169393442,0.167723976,0.148977735,0.146824525,0.256424767,0.200876324,0.24793762,0.162861929,0.169694033,0.099280209,0.106811013,0.123103752,0.120137285,0.198896834,0.109830421,0.104856546,0.076871285,0.092519025,0.104100183,0.074529743,0.074453976,0.146263486,0.158902618,0.109576027,0.11885752,0.150060868,0.071695646,0.069336668,0.084388096,0.075417661,0.095668434,0.071572571,0.112625533,0.100536922,0.18050859,0.106753836,0.120255179,0.090353924,0.087201403,0.103441613,0.133695627,0.102583089,0.110173356,0.090208556,0.091178389,0.085821753,0.076249468,0.076779492,0.078960733,0.088666911,0.088668308,0.083858468,0.097262924,0.085141038,0.088670599,0.082306664,0.104616423,0.126600446,0.114406587,0.097648519,0.095132563,0.118394277,0.103939543,0.100002057,0.089797902,0.110712248,0.115139482,0.115899282,0.118708247,0.10162003,0.109902172,0.111468628,0.096285638,0.100680616,0.100630741,0.101371761,0.091558872,0.094599664,0.085646421,0.090390945,0.09985804,0.113652037,0.124430724,0.096766446,0.106641328,0.106874124,0.109988583,0.099769853,0.098340498,0.105081454,0.105050414,0.106459937,0.110909745,0.123338587,0.112397354,0.102201507,0.090771494,0.089908687,0.096294585,0.108499825,0.113645971,0.093927559,0.083326717,0.083459622,0.089699379,0.103419272,0.094184962,0.106404083,0.101066088,0.08725483,0.091768664,0.093483347,0.086855007,0.100544395,0.155171314,0.099925444,0.095626092,0.101452648,0.101390964,0.10352225,0.10396765,0.098775131,0.102032926,0.102489032,0.097683732,0.097169221,0.095744096,0.107376692,0.0959415,0.10550788,0.103776913,12.19559948,16.76626349,16.1918728,11.04157447,10.85882661,17.63821032,8.857714784,12.56607368,13.56911792,13.75780416,13.72523095,9.327243872,8.464705855,16.37700396,133.7417976,20.27131657,13.13916552,11.21437966,10.43272775,12.4679406,18.45289258,16.52063747,15.93850713,13.84579488,26.08227981,14.25715342,18.74832097,18.30082055,13.70468041,21.5379303,13.8794267,28.74224035,134.2994602,16.03982003,14.69625198,19.76549592,21.60394837,14.28875744,13.86291851,19.27657081,7.7244396,14.93315856,10.21140618,30.84080563,16.68277708,8.378328487,11.56799947,21.602074,15.91494831,1.010009727,9.783380218,15.67830006,12.19647174,12.63609349,12.97607027,16.75732174,19.64422533,14.8012806,40.2978913,25.16667756,11.28225129,18.80157992,9.745889195,12.85867738,16.80106711,14.80600658,129.3776233,18.39351655,22.4680204,47.36115093,21.97177829,76.06228102,19.44114913,16.67756596,28.36886574,17.76047707,15.53827919,14.81916587,6.627709372,14.65186286,9.241259793,16.68810088,6.565740068,12.39053152,15.33090744,7.529504804,5.753893564,15.97833683,6.921781055,7.43934746,15.76490796,9.594982433,67.33096502,9.970748149,17.71574281,12.08657559,13.9122115,13.67498238,15.61109719,17.68713125,36.74041409,13.15862323,19.60912837,16.37920242,14.67456306,13.73025286,12.20761343,11.34786963,17.21398089,12.17355849,10.72810998,15.23808589,13.46703738,53.59736146,8.275281752,0.897556117,16.42064533,16.62620748,5.916715596,17.02388916,430.5587493,14.81752322,6.931585965,14.69876654,17.06280341,16.88832023,20.80116665,15.99022288,23.84404391,27.86371536,14.76890486,8.283159168,18.97986714,27.43255111,16.72047725,17.22660416,14.58210818,15.43660996,17.15996053,13.85679778,6.98074388,69.56694854,19.19296441,16.30885144,16.69496679,11.7705752,16.61512594,15.47765676,18.01184236,31.99699898,17.06411268,17.45883854,330.6314377,20.33180655,10.12491527,17.08248391,18.82961891,14.10924435,5.632383136,9.070906536,20.19058148,10.11626619,16.24336741,15.16041891,16.37239527,20.67243277,7.368907989,39.78403568,17.10733099,16.41717555,12.79226369,5.721068805,17.82727684,50.53444573,21.38950702,18.74402446,31.88946863,51.56230853,15.64157418,21.90200048
16272,0.200930277,0.213447565,0.22332507,0.210678459,0.178179408,0.177523608,0.266758273,0.216987786,0.301285017,0.318796497,0.199844129,0.229980286,0.350559328,0.242899155,0.228105415,0.367005344,0.325172642,0.323035549,0.342087956,0.32924044,0.345141483,0.361606186,0.335950939,0.40347034,0.340759229,0.318686194,0.257503451,0.261047871,0.352670365,0.330536596,0.552004392,0.263568607,0.368248242,0.376712008,0.486973904,0.395429987,0.484004508,0.413378059,0.515869179,0.264607461,0.374886672,0.404083433,0.492792943,0.471466704,0.510772413,0.472339491,0.47488464,0.552246765,0.651188626,0.551037941,0.459785142,0.31305908,0.406194342,0.351863939,0.337832817,0.314444955,0.343668775,0.313517296,0.347853052,0.388876303,0.339462796,0.445722557,0.350759121,0.348627895,0.369921587,0.36971223,0.329492773,0.30124269,0.397231353,0.325029856,0.350196237,0.353908543,0.282014517,0.287907535,0.265768411,0.248606276,0.24975769,0.223225397,0.231425158,0.262550523,0.212516428,0.269803452,0.26764565,0.270475605,0.335852135,0.646620445,0.468520145,0.303630661,0.325281091,0.268064178,0.275667463,0.278203328,0.266067515,0.219665234,0.153489818,0.181071659,0.191631067,0.224122321,0.192467265,0.184904364,0.18270301,0.215368091,0.251326488,0.609029474,0.310761469,0.795842251,0.988883806,0.867268927,0.710567594,0.340182355,0.273709622,0.364126318,0.326579609,0.330015653,0.29020349,0.260604475,0.233184234,0.20586121,0.197473104,0.189067014,0.16334044,0.151094166,0.173233802,0.187163347,0.194553593,0.219624725,0.207978836,0.146677445,0.154648214,0.218573664,0.259916104,0.252459947,0.16660097,0.210464874,0.158228081,0.177875953,0.185952909,0.185058554,0.156768929,0.202876585,0.239261026,0.193609124,0.169072174,0.252450135,0.20821361,0.216005079,0.170763322,0.179385079,0.194971276,0.109334377,0.117833751,0.118322662,0.122188604,0.108798399,0.122245736,0.106331668,0.108746328,0.158368498,0.111679828,0.118731354,0.104515499,0.101748089,0.116389434,0.114566589,0.107109246,0.157203472,0.103257003,0.103981667,0.109013739,0.116931957,0.15695935,0.108980091,0.186103411,0.152094085,0.180580388,0.311895551,0.347060502,0.176329387,0.161401326,0.177663395,6.787459382,10.80371855,13.0680712,4.253130921,17.01234153,5.190075804,8.283700537,31.13793671,9.370542179,11.05167546,8.802582206,13.59599063,17.8882984,15.93994341,36.64000121,6.217487977,25.95714964,11.51700091,20.71136651,2.662179893,20.47573524,9.307389635,16.71178957,3.039678436,15.3267487,18.63804802,15.9187508,5.367421074,16.42342864,15.57085564,10.03454069,9.388245746,29.93620854,11.18631972,9.399522472,15.81941741,19.65804372,5.801748199,11.38760815,8.890887089,18.34499865,5.737691128,13.52714436,15.82592712,9.348573478,8.127035124,36.31908497,11.83340819,47.26722685,12.96183671,4.94856838,0.496745046,17.1940769,12.44896313,22.17643885,51.61370358,13.68366877,58.22843826,8.234558906,54.71169704,15.89140787,14.84817643,5.609540764,8.641515837,7.839240762,19.51391664,16.02620358,14.87763471,7.812491932,15.9691305,7.569745774,23.13995633,9.394031125,14.97562302,10.33997186,0.791352271,10.96810252,1.406543963,2.886774804,84.88611438,16.75971133,31.38475526,9.908164872,14.43780019,17.33667883,15.5943882,36.83116519,20.55315438,16.53015302,200.8608022,20.63783389,279.9085705,13.51842426,12.51838222,97.84069125,14.47898312,24.30633787,18.78305809,5.221701926,5.150340162,16.56147696,13.58344129,17.61422941,22.37526422,8.880164878,10.2405711,27.72048413,17.94674004,28.59054676,60.642035,4.562273581,14.6355517,12.6535865,18.84727618,20.2648152,5.728507166,9.358268304,15.50463385,11.84138725,10.08130181,12.70771027,5.675662887,16.83136631,0.902397809,35.78775459,28.94461076,11.54495967,4.16751742,1.367840337,16.16700486,0.616585923,35.15591099,28.25687321,83.87170571,21.31953027,2739.175085,45.58161724,3.252831987,61.73562247,6.226227768,7.196134523,8.511106095,9.972018515,10.74394503,7.839631282,10.97340677,372.5262065,7.001529795,8.850926506,8.737230149,0.82236532,7.012627472,485.0422082,6.430210502,24.07116462,9.077759106,8.493248239,6.027098264,40.55978054,8.363568968,8.398519536,29.07941339,3.675176205,6.930566103,18.19888436,8.070676926,7.277619967,7.617474086,8.279669759,7.839884362,6.987916774,17.37959872,8.858983283,10.78747644,40.54038309,34.55587415,45.90777307,63.20456346,11.69194666,9.182461462
16273,0.163355483,0.15000427,0.161094208,0.158711708,0.203120741,0.152764916,0.139914361,0.148439802,0.150867039,0.160259936,0.157272583,0.166180241,0.162055817,0.148949092,0.18616671,0.277695628,0.241269461,0.159832009,0.143191365,0.188142736,0.142394911,0.162107757,0.130512733,0.159703229,0.153769436,0.170726604,0.308466134,0.2054932,0.174817746,0.188064508,0.171923525,0.216967651,0.236585473,0.183180968,0.143362836,0.113923938,0.127462952,0.165049976,0.194059857,0.184099352,0.152039834,0.161318676,0.143524579,0.134534178,0.137724055,0.137103592,0.138531314,0.144976682,0.164843391,0.185592754,0.175226275,0.186820894,0.173604136,0.17833557,0.166433694,0.176250564,0.125753342,0.144948036,0.174110036,0.205928438,0.182475507,0.170968259,0.183924784,0.171834278,0.175580184,0.191384282,0.184204169,0.207970429,0.1877408,0.180453331,0.190927049,0.18980223,0.186926956,0.176347936,0.167536026,0.17151455,0.184427373,0.188222903,0.18356304,0.190669003,0.366663088,0.249335556,0.119704793,0.11535609,0.124387035,0.104641661,0.108958518,0.091597524,0.085707787,0.097347514,0.092483055,0.092017404,0.107760609,0.096249124,0.105885575,0.099134462,0.102635105,0.10657403,0.091326777,0.115302293,0.085124974,0.088067727,0.092533575,0.099786846,0.099364343,0.096938823,0.09063233,0.096757945,0.085919137,0.09388034,0.123934458,0.098312643,0.082217446,0.095280964,0.09057425,0.087593033,0.095313713,0.102279645,0.087074536,0.088952981,0.091199771,0.084228873,0.089894352,0.089560913,0.08855203,0.087778524,0.087316495,0.092321809,0.089572525,0.092771251,0.084946929,0.09098741,0.086074067,0.103099322,0.086013671,0.094370132,0.101606676,0.102833221,0.101344578,0.111044807,0.112622926,0.100541813,0.103902446,0.136520672,0.130898835,0.092723966,0.085291788,0.08408839,0.077393184,0.095381699,0.082985156,0.102721565,0.103024172,0.098960461,0.10361917,0.107777162,0.092227132,0.093956881,0.096946157,0.086956228,0.089945341,0.136389343,0.087304316,0.091493673,0.087473379,0.128479854,0.108114865,0.147671849,0.117286842,0.100172579,0.079244323,0.071332544,0.07528843,0.098470406,0.073263268,0.10658181,0.07249046,0.077283741,0.069869606,0.10114932,20.61743932,26.71286992,18.5679157,19.45147513,16.49506561,20.64362927,11.73612487,19.07553182,24.42784122,7.624944845,14.13437284,15.84935207,25.89854618,15.13173387,0.703245723,19.44561382,11.29691716,38.47175163,18.93250241,16.72654072,12.33434893,11.23065134,2.851036956,16.5206398,15.57011469,20.45634288,16.61507565,10.10581838,12.64730215,39.90237972,46.06283984,15.47633066,5.914944172,54.11292408,13.26982149,23.83173664,1.134024932,11.30421234,30.87377455,17.53523051,27.3339038,43.02770473,12.51382677,21.71223038,1.214246681,9.836170732,13.58588594,16.25569913,14.07969406,12.4665492,6.486621791,9.826889946,16.63816644,214.4764863,17.76087027,7.363865114,8.12526546,13.04685306,14.78443256,39.66992195,0.089290536,13.61066034,15.86588327,11.88690332,16.02484183,9.170494691,7.912868656,14.19372422,14.9064828,91.52903495,1.53895576,6.691996272,8.632613277,15.71531121,7.951073475,20.36222264,20.751163,15.77024385,26.17272023,6.656884157,11.58275303,37.54293078,13.55940341,16.40053018,9.698906961,7.210209314,17.52477827,9.681228448,12.8019164,16.37340469,18.95930322,4.242027189,17.80990441,13.47130361,17.8981505,11.95651221,18.89205609,10.93767628,18.01758303,16.06769758,17.52939576,9.337018501,21.62619138,24.22532701,18.54781095,17.56720812,18.47624742,2.56767002,17.69843593,20.09646424,16.90309064,17.31764305,15.52912077,16.42229354,13.79156748,17.50726985,9.894206284,18.32469395,18.01139481,13.86231958,17.5986993,6.325495658,13.32112063,17.06160588,9.685823072,8.480868857,8.403988944,17.00222703,16.67095251,27.79581919,16.18420871,17.2400836,12.70224157,7.253029211,8.910830414,18.1278202,15.72962954,4.836992917,17.18556844,14.61561306,16.21952323,17.07120975,21.78141698,13.36733537,5.995326724,7.286417299,9.096163003,16.78276067,191.7166291,1.283571817,10.68505472,16.26957174,22.87421962,16.92445665,16.96065142,7.723908074,10.68242053,9.223135783,25.09885474,224.1985969,18.66074322,16.47412404,8.439451679,16.2820945,17.5996892,29.08760898,11.23167505,12.45998206,39.72052781,22.58943944,14.42710393,17.53267155,8.900527,13.82482913,17.53947158,23.75190757,7.670958808,18.36747688,17.64895571,15.56520725
16420,0.147907422,0.153034396,0.166991814,0.177376214,0.157493014,0.156787829,0.167327154,0.138164915,0.139659706,0.17847451,0.159110821,0.137484372,0.121775463,0.122599916,0.132528143,0.21118684,0.144157371,0.145662883,0.162324702,0.12396939,0.11990541,0.11406456,0.227965925,0.248879404,0.186148789,0.213345641,0.162620411,0.296746359,0.202121407,0.185736326,0.255623435,0.176047877,0.169870655,0.151966547,0.186317305,0.198949056,0.217197226,0.221464347,0.20599835,0.213491655,0.224032849,0.241094962,0.192414632,0.175545011,0.154268376,0.174759122,0.171909437,0.165580458,0.149759229,0.153837479,0.175317073,0.155670191,0.104870224,0.102737371,0.109406583,0.12216954,0.12858244,0.163509451,0.236140574,0.21277179,0.1443646,0.1480244,0.147040301,0.153154154,0.15215457,0.156779169,0.155815339,0.152654238,0.151800216,0.147406376,0.161650805,0.159307596,0.191322493,0.165803616,0.164653338,0.150211509,0.128920973,0.142446171,0.151049824,0.157354309,0.146219984,0.161765645,0.133971461,0.141026034,0.137295326,0.136468951,0.13044567,0.120174622,0.122685878,0.123122354,0.134099471,0.124082438,0.124963698,0.116321587,0.11809055,0.122514981,0.122034332,0.118132316,0.117244015,0.127908838,0.115072906,0.115436181,0.126641375,0.143858699,0.130354263,0.15029151,0.154924569,0.142160471,0.129756532,0.155390459,0.146378407,0.139068593,0.150586195,0.155168594,0.159205112,0.140734026,0.159083426,0.166991145,0.186767671,0.151982422,0.15688161,0.157856313,0.132296492,0.119317381,0.13946463,0.130883749,0.111014319,0.141407215,0.130365707,0.129240557,0.130596759,0.124104171,0.123144324,0.128355895,0.124230198,0.130046572,0.122274468,0.141819442,0.140269453,0.130332791,0.133887399,0.139335085,0.14348995,0.140392597,0.145665816,0.153554112,0.149784715,0.134172548,0.140768863,0.14465528,0.162864736,0.147785001,0.154053628,0.181703871,0.158197382,0.179008513,0.173008495,0.172114865,0.161792114,0.166071257,0.189166739,0.199945476,0.187707764,0.144154766,0.142074309,0.173702131,0.147228108,0.155451751,0.153393246,0.154062356,0.161837266,0.16939363,0.200166945,0.155126634,0.146672321,0.18367358,0.195388389,0.200535015,0.181422214,0.216581277,12.32962497,19.09493198,17.61443877,15.4264616,16.74428782,11.61235335,15.08175049,77.01407319,10.51537306,11.95503865,13.69414145,9.607565858,25.16354081,18.08966564,12.80212797,11.13454027,21.42393156,12.02039286,8.737034902,34.32627289,1.597863663,11.84467027,3307.119768,7.866871818,19.1937356,928.1367273,50.28620594,955.4689626,10.28947781,6.467857009,25.58012276,5.839314143,13.71477351,21.36494185,14.40226876,14.86122627,10.9673551,9.928339795,10.85422222,41.57069482,1.106119705,6.204920423,20.30689886,8.058546542,12.42061548,14.20412085,8.483152146,3.890044362,15.78408435,33.05330938,18.66066522,13.90455816,32.63637933,7.96710696,16.06105509,12.60968992,15.56319979,2.459823027,0.92139137,1.049654238,12.37612603,12.59396988,8.296024557,25.83552151,13.02989339,8.438763666,48.42616991,2.854231896,15.64212588,19.09875902,9.21882458,14.51556036,19.18782665,5.554610433,19.86819446,9.209674078,8.291899489,2.007713533,16.33856277,16.88065758,15.91472872,3.076880729,10.77991774,18.19074648,5.494491493,11.53870521,8.237626885,6.192403643,16.704012,31.05337288,7.665966245,12.02463482,6.261157098,17.13806247,109.508484,16.10002507,26.8208195,25.10751161,9.045774062,16.89919988,9.898191375,15.84189091,3.007655437,252.9060308,16.87467339,17.3707708,12.75779677,5.956568337,19.27573118,7.102509951,8.588022882,16.52224681,27.43492644,12.87515445,12.03974073,14.02703971,19.55044629,69.51031627,52.14410297,15.81574621,17.92504146,43.95626859,30.75155594,175.185831,17.61221183,16.33978416,10.47196351,15.57598278,28.49310444,8.285698583,13.44102613,6.58618986,8.424692877,15.65230797,51.21452977,12.42629607,13.9207611,12.37139414,56.32279757,10.3177538,16.78319371,87.27043607,11.1232331,12.46043315,24.43968478,13.08436021,26.34308146,11.23111624,8.688326413,36.68199603,133.2916034,14.54362668,14.32104702,1.532545555,24.77890842,7.745196978,19.78238452,14.37293804,16.8959816,113.7817426,4.312005856,12.62165735,9326.534812,18.68966045,11.55873934,25.29502888,16.29957307,14.91947296,28.40703972,17.13646515,13.73080887,10.94986818,18.77885985,15.53962166,22.44754665,5.508100368,11.48579988,12.19700913,11.64601078,14.69254604
16483,0.256522501,0.27738689,0.296284907,0.379785397,0.500180826,0.526756123,0.446355485,0.2568792,0.434288909,0.293104233,0.323635309,0.238808219,0.333376037,0.284202086,0.311619204,0.284454857,0.380471364,0.287109677,0.231353909,0.35843524,0.287070884,0.230902257,0.253129076,0.235355225,0.285138405,0.297394717,0.405011371,0.391716408,0.345624347,0.30338398,0.300950288,0.27178544,0.251157924,0.224842614,0.174657726,0.209687274,0.203015884,0.273839559,0.206359885,0.195991755,0.265091642,0.261700808,0.225250265,0.197526564,0.187272613,0.186575408,0.194541479,0.195758069,0.175988557,0.181580914,0.181457254,0.185631864,0.207779237,0.216968435,0.251288734,0.255097354,0.205475395,0.193751166,0.198748973,0.327386286,0.309873213,0.252289735,0.271595441,0.259524179,0.314655334,0.296661392,0.24819829,0.37434111,0.251288915,0.276883953,0.298950211,0.225616323,0.353403566,0.309315267,0.247772932,0.227043357,0.215358727,0.209624878,0.179425063,0.226083221,0.17581119,0.175375909,0.194562977,0.21677953,0.173447406,0.358083152,0.504279322,0.340883445,0.283146491,0.282455651,0.293043318,0.334936176,0.263767542,0.264155185,0.252797483,0.255085964,0.384891027,0.244505651,0.276531781,0.251518296,0.227453356,0.234288349,0.238311533,0.232272096,0.223082707,0.231556014,0.24008625,0.237315593,0.249960365,0.236935017,0.286674951,0.239854274,0.26742832,0.272192888,0.294462987,0.311642109,0.277690502,0.261993279,0.244374202,0.310957689,0.337915176,0.389352832,0.331060121,0.400205077,0.442460134,0.287631528,0.276824969,0.293954563,0.344433419,0.294973923,0.281720308,0.46377254,0.666860469,0.695615576,0.686958357,0.596098705,0.400343169,0.339438278,0.291246764,0.308029643,0.287951229,0.278728797,0.27374969,0.3047438,0.347682792,0.293105787,0.393184316,0.313197515,0.387781046,0.531373082,0.36993913,0.531880025,0.189219652,0.256625726,0.29455756,0.310900881,0.251163013,0.403808868,0.267127181,0.350141433,0.325186982,0.257979749,0.312111707,0.290640885,0.25908791,0.319122497,0.308565697,0.377996893,0.340344458,0.324047271,0.269599948,0.294481419,0.262491889,0.298110574,0.3686224,0.288616395,0.328983864,0.376174752,0.335156384,0.392359189,12.00868076,60.15225424,11.1240962,10.54216155,19.58441084,1.426846693,1.30386172,13.50467843,11.88855018,11.61905574,9.779980225,14.60501716,4.023145447,10.96365722,19.81013086,7.0338484,8.307108679,25.94499226,161.3491179,1823.685534,9.578454265,0.363617598,9.104489875,50.79741789,14.99930977,13.33159188,4.339936362,34.46599335,177.7031373,10.33369925,10.97638566,2.041478038,34.11784701,15.55491488,265.34039,12.52082996,32.80747854,30.96022752,5.879315508,8.41527316,6.299833056,9.778876548,22.11337725,10.02444315,26.89327053,9.350564814,37.28748228,11.01165622,15.87681534,9.826575729,15.57557744,17.620319,8.487562711,85.49417893,9.375264673,19.49566941,8.350292875,14.2943164,14.48827192,148.4446915,5.524836758,9.386445022,51.48667305,2.952378006,5.468063204,19.54490652,10.95326637,13.0759682,30.65535555,0.69774369,61.78834083,13.9684246,6.601858898,5.512533684,16.66289924,44.03249087,1.944603984,12.62347066,10.10101156,10.00564195,9.342992055,24.42998769,4.34183843,30.59981998,10.39838167,9.939168969,12.43844134,23.17672964,9.497720029,4.052649029,9.349013993,8.043834173,17.7110227,58.09847599,14.65018512,20.12250291,9.515064368,10.24633322,9.692056334,10.12207931,11.34267368,1.749643276,5.769574547,16.82862481,9.122176434,9.158450014,10.6248696,23.69379662,1.285332348,12.79156803,16.31365326,16.61508725,9.077786637,12.7407399,38.41504092,0.162245382,14.42399841,50.86253736,135.7252735,3.607008773,7.060859342,21.90045364,19.81485469,10.37569537,15.29317678,2.558248967,31.60818957,30.30632339,7.642903367,1.130627896,3.425114759,10.42235509,255.7454905,7.849656969,365.9114144,149.6970832,8.069100707,23.22319608,17.43498338,22.80107772,11.13764077,14.48319144,17.92782039,47.6990278,49.5291382,11.52421719,15.5170509,11.22175321,13.13012673,11.84909319,261.8995777,17.03796926,4.51419068,0.566081925,0.445525824,10.02617439,15.05836242,12.57826273,8.77215445,33.06682528,5.858271659,17.2694103,6.290251711,18.08892547,53.25374114,12.97335039,35.95624416,1.097732275,42.53407001,7.001051324,21.34185512,11.78262387,12.19927322,14.32185763,10.6265395,326.5909305,10.49809856,13.9234454,2.567171203,14.08584135
16539,0.182682756,0.17014827,0.175320535,0.188387943,0.193556385,0.250378565,0.247195452,0.291633707,0.308446344,0.258264146,0.240356576,0.257126819,0.234639039,0.213244349,0.224410291,0.187791737,0.179431596,0.192276912,0.181509932,0.201788825,0.421927658,0.313743732,0.315444974,0.314324974,0.369923851,0.360912079,0.346184591,0.274468487,0.270208586,0.227319879,0.205404986,0.211109031,0.191541904,0.162410116,0.174362903,0.196781392,0.215906248,0.27212048,0.283857442,0.330429839,0.250639609,0.257081552,0.37361341,0.324914494,0.306295563,0.199755456,0.313942818,0.270458426,0.31110026,0.31071202,0.327084595,0.338983367,0.309411958,0.340116737,0.243204639,0.227478353,0.347268273,0.522053565,0.246028376,0.190419982,0.186605938,0.184438476,0.193854122,0.211848505,0.193261702,0.149998669,0.150193196,0.168367266,0.168105247,0.219446938,0.241964648,0.221092396,0.204463418,0.196268254,0.172365053,0.192634155,0.230593688,0.213669696,0.233702826,0.245489583,0.231659666,0.181608587,0.180182129,0.281374052,0.304715166,0.377731421,0.515089473,0.371858016,0.232310273,0.429268546,0.393354021,0.312774398,0.279846871,0.358026195,0.316498022,0.370302064,0.290835181,0.23815329,0.309966659,0.331784325,0.299289512,0.348206492,0.358455864,0.305930464,0.27116768,0.232682596,0.225564594,0.230844704,0.292362386,0.220320397,0.277615453,0.310619756,0.239272261,0.29565982,0.286428454,0.271326926,0.247567289,0.329949948,0.383777801,0.351219208,0.232416178,0.287452428,0.257607028,0.282977716,0.273722936,0.305448231,0.324856798,0.275373743,0.234676411,0.25833185,0.289930567,0.29801776,0.298213812,0.348102846,0.247253201,0.307390975,0.409981258,0.312427805,0.370139718,0.415184457,0.464128539,0.393052868,0.402687275,0.34837877,0.330770579,0.295285886,0.29263204,0.263125378,0.299035852,0.247774228,0.257316296,0.310268205,0.359505099,0.306663597,0.320198094,0.288309995,0.298422377,0.197452985,0.301188401,0.363349323,0.329931619,0.315946197,0.294978857,0.539410549,0.2615826,0.297584511,0.327892756,0.292290675,0.285835367,0.313472778,0.265374356,0.308280419,0.262964979,0.279847952,0.260504543,0.202963873,0.188067802,0.288844767,0.3047795,0.311877797,13.23808189,17.38670392,16.41107677,10.25201954,26.75591661,16.57708404,27.42821812,14.54805704,0.35522855,3.947733936,12.26980368,22.65346162,26.98363317,55.34357068,11.48168166,17.47310632,13.51082607,10.46115824,19.76305833,6.154850167,163.5095181,160.8757431,23.27168968,6.718131085,17.97578581,10.37304077,14.52624719,17.05471832,14.41781804,21.55043264,557.945493,10.82511869,13.27525415,7.575830457,12.80534019,14.48061919,20.99086292,15.31334539,6.803804368,11.61199865,87.99127152,8.245787389,4.038174378,16.83403872,19.09845734,0.478234815,14.44857328,15.97028101,11.72137592,39.019411,3.301159833,16.0153197,39.5133486,13.34218182,2.920983957,25.59654284,6.718818134,66.78406713,24.75043265,12.60255135,16.04125601,22.79459876,15.96250361,16.35525805,17.32573747,15.93678888,19.68858338,14.20122363,7.572110278,13.74771542,16.46535686,20.60291015,16.03015453,17.47728273,10.32485418,16.58287729,17.52710369,15.51670478,16.8799371,5.702771314,18.02795993,13.56754721,16.1441487,11.29881358,17.79161765,17.49361004,77.44121647,1.283177419,841.3306392,18.69309738,41.62913011,11.2068265,2.92620597,17.57353713,15.25532699,1.889108628,19.66326667,7.652403374,10.97732161,16.2235532,19.71190935,153.4229452,171.3003273,11.49939896,3.778410154,5.689593202,20.4297074,5.795897059,10.50068492,18.33678065,15.99558584,16.46176526,14.43897685,22.53277368,28.05661053,17.09933983,21.04963599,13.63850204,5.39323681,18.27921747,15.88294592,12.87183102,117.6345008,15.27293394,14.79289715,3.542166647,18.56806297,20.79869429,13.08219183,17.35772068,70.27885583,1.932355799,50.23486635,7.944708674,2.325061708,9.23397349,17.01779736,16.45040313,10.48800118,10.29579807,23.85628405,3.685070337,6.379593914,31.17671865,12.71024114,7.932107897,9.283769473,17.72711545,11.10924623,23.79499725,14.62685324,9.883500757,1165.827849,2.229965663,10.52439375,13.54352805,14.79729099,12.23185151,17.16037712,9.844637638,18.50630969,10.2198151,19.21551911,15.04219174,10.65734319,21.7566866,10.22877358,29.66489651,37.23057892,10.36328371,20.68488792,11.42384956,65.39707484,15.93126637,104.3031685,19.03201557,17.12706758,12.6925338,8.114547432,8.10621841
16773,0.180395275,0.19105795,0.145138607,0.155728537,0.208424339,0.271932387,0.192369475,0.251103737,0.212408503,0.193228282,0.188590771,0.17918203,0.19696991,0.20557161,0.23075087,0.203490081,0.212916271,0.257942252,0.212029606,0.200979038,0.174671596,0.178871874,0.186454405,0.190124845,0.208268697,0.16949373,0.191976485,0.180503723,0.239557987,0.222737666,0.226762119,0.228198388,0.23621364,0.215826626,0.240841038,0.322979855,0.305235217,0.304450177,0.316186605,0.181459757,0.16404114,0.121861848,0.15535014,0.110747488,0.135019924,0.14631612,0.158399818,0.128127784,0.120422187,0.106091546,0.160045152,0.118095416,0.108471836,0.101706832,0.095715596,0.116570613,0.094139269,0.099923242,0.097126692,0.096461027,0.0971456,0.099412738,0.123183036,0.091599029,0.089359057,0.082917111,0.098321013,0.095684822,0.091439406,0.092496116,0.10373663,0.095918885,0.0964515,0.110591331,0.100104692,0.105259192,0.093740514,0.120222066,0.094948881,0.108076557,0.102139814,0.106923708,0.097084908,0.105055327,0.095525001,0.089742508,0.110969638,0.088357526,0.123565427,0.121135847,0.094304579,0.102070414,0.104058347,0.109177686,0.093894342,0.093139468,0.089463941,0.09672573,0.095897329,0.091934665,0.085606106,0.092264347,0.097827361,0.093637867,0.098540409,0.111913791,0.105475196,0.09776859,0.099973359,0.102251662,0.097037667,0.102520038,0.097905103,0.094711529,0.098397499,0.089825286,0.092385902,0.090233783,0.088209277,0.092023663,0.097845701,0.09821802,0.105116915,0.096567578,0.094445051,0.094385426,0.09387386,0.088000467,0.094579546,0.096773537,0.101352957,0.097552068,0.095478201,0.1008158,0.129252984,0.103940967,0.126499453,0.095395496,0.089810849,0.086880516,0.097853016,0.092713019,0.081992326,0.086827269,0.097131591,0.097367444,0.086482684,0.102202251,0.091718179,0.099197413,0.136499988,0.109959374,0.102701657,0.12070353,0.132229461,0.119970363,0.116767878,0.108179664,0.110426799,0.103224482,0.112788758,0.100973994,0.102435163,0.093973512,0.097713953,0.091428863,0.102804369,0.098803576,0.103860915,0.098257363,0.100423265,0.090915,0.098796159,0.083651004,0.096113129,0.103667965,0.105295532,0.098631956,0.109675248,0.109808238,10.20544793,1.259052085,9.344983582,20.65872717,29.60817961,1.956873847,25.81747876,6.737564664,21.30961849,11.52523401,4.339040728,6.304520036,9.081636192,65.99957963,5.151637128,105.9031841,12.75159519,29.74715691,12.189063,13.03287197,11.09035548,10.27739746,17.60683311,10.68603012,13.04012556,8.986901407,14.2437473,24.75493157,15.76294533,14.64933929,15.91450996,2.339707908,12.41277353,2.595138759,54.74012986,71.08727018,19.19610297,22.62884833,7.880995922,17.1992534,15.0045318,8650.36411,32.44912173,9.421283124,29.14837118,9.626675562,15.14210228,16.04529223,9.645220735,0.602903799,16.23141068,3.481715255,4.116799415,8.048463983,7.77467814,22.9065394,3.309630226,9.426437355,11.615758,14.91825523,8.7435478,1.366291091,12.06170057,9.122486055,20.79851963,15.87747189,11.08297384,29.07049325,12.42354503,10.12833486,16.45814141,18.04790607,22.47128969,0.881439179,9.492269691,7.385598983,22.73507089,10.41256461,1.924506387,0.926957715,21.05482098,7.399173781,10.91501516,9.938382486,2.491748294,24.28457748,9.247611846,65.22821797,8.844362702,7.426337448,22.4519865,1.061927454,10.51516919,9.116896632,14.5176282,47.30827727,9.141915393,30.73036049,33.26589361,10.20311241,5.144589448,0.411971721,9.776081071,10.21996611,8.737037089,10.00999084,9.76903518,9.258993073,8.820170216,2.539775678,7.169957554,7.804113513,25.34231824,31.73877537,0.586826918,21.10144421,12.28427924,9.824792462,104.0670881,188.8150573,24.28440838,1.994772622,8.520656159,17.76058703,11.5247471,1.355032703,22.77350138,22.90170641,9.493575679,9.633100747,9.950438602,17.70298114,238.5711076,9.913686256,14.93707673,7.84831556,2.20600699,20.52051764,6.866547999,289.589938,23.95438493,7.143317626,24.70353687,25.49270891,0.800740558,8.778839423,17.22047789,11.26611654,10.254098,0.198448015,22.04207347,86.0265759,1.641919416,9.004047329,0.339740634,10.60877779,9.864361919,5.689680927,9.021509383,20.44147836,6.489889953,35.60309767,1.757630595,22.96209178,2.825749334,38.4331367,10.47390534,8.899132125,9.127015776,4.610199839,8.813356013,145.1400267,18.73958851,8.963856262,4.827223143,16.39392617,11.5656551,19.17554077,9.47741507,9.450769587
16786,0.1240202,0.127911847,0.125994,0.114487528,0.140371826,0.123482653,0.158381024,0.128923886,0.121024437,0.118134911,0.130186557,0.136471615,0.17645034,0.128631358,0.104512936,0.124380375,0.145484101,0.243575984,0.219009792,0.175985116,0.136923723,0.15413639,0.162826405,0.13952784,0.138005559,0.17486337,0.177433924,0.162078359,0.169679848,0.149744424,0.126512741,0.151571412,0.151117108,0.149152164,0.126527716,0.130955851,0.127792154,0.14488882,0.101707965,0.112035587,0.124918767,0.116457061,0.148015158,0.119120055,0.110049303,0.117089015,0.113092501,0.141306272,0.109179339,0.139374148,0.164820337,0.16289149,0.185829222,0.154698647,0.127925218,0.141322487,0.145012799,0.142558151,0.133080934,0.10847812,0.176704848,0.143592001,0.129784168,0.141304591,0.150213022,0.157469458,0.115143038,0.153704938,0.148567606,0.12306245,0.115840766,0.138399773,0.139403044,0.152182589,0.164263032,0.145434558,0.114212804,0.165347738,0.136024098,0.123079383,0.11352834,0.107055772,0.10469992,0.114799412,0.149444058,0.149490564,0.115115991,0.159202302,0.124804459,0.119258233,0.122780896,0.109578152,0.141371323,0.186773746,0.12480973,0.141330835,0.109171112,0.107546744,0.150317857,0.170267642,0.104849904,0.112199852,0.138781569,0.104612309,0.107618606,0.126909819,0.142847722,0.114298768,0.135981137,0.134670349,0.124967078,0.150908584,0.130773161,0.119159051,0.103739724,0.121192194,0.107930857,0.122189054,0.143404719,0.130521352,0.112087563,0.174219916,0.135366641,0.12635902,0.137280662,0.127592948,0.155711622,0.149820904,0.159553324,0.11001617,0.125924947,0.116649454,0.11949225,0.139877093,0.138305891,0.138464066,0.132305769,0.117577036,0.105784454,0.140891158,0.12691253,0.130017242,0.131156272,0.121432679,0.119244832,0.12134505,0.130223945,0.12987914,0.149621815,0.117079953,0.098371107,0.122759718,0.129811983,0.136404743,0.121369501,0.120646156,0.138878213,0.1235524,0.141629043,0.126998814,0.148903219,0.130284527,0.132790926,0.107291709,0.122258102,0.097591865,0.121655008,0.122005719,0.124136303,0.122583669,0.130298257,0.13093022,0.102374163,0.097495237,0.131691515,0.165868902,0.102009,0.135987692,0.124626364,0.12781008,15.24514223,68.40391639,2.938431689,48.58109474,15.58158529,1.745334852,191.4158939,11.51350303,8.928200414,15.69531432,11.72489528,9.711933535,16.0369956,7.857349447,13.46952235,10.01129687,16.6487545,17.87484852,4.619641151,83.77941071,16.88076576,7.569301185,9.921617802,17.53604035,14.20482766,10.82213339,52.07823613,19.29645366,21.78749482,185.8678217,15.83639662,26.54333946,16.49461441,14.47918845,2.782035369,18.36911373,15.47049901,114.8491223,236.0041421,8.758354676,19.06574199,8.07271377,22.61905805,16.62677074,8.223311396,30.70469836,22.98800151,16.30998946,15.90620028,16.34508466,86.76273752,9.479061441,25.81631377,4.820404995,24.2081396,108.6545437,29.18042078,27.99300266,0.515857064,5.132430351,29.7871526,11.05654206,38.5433755,16.91217498,11.15588999,16.9041816,17.03244502,17.80764856,23.37846022,29.68017822,14.83654401,9.699388579,14.46681662,18.09725199,15.09898063,13.08103885,16.32097617,7.341267239,11.80880833,9.308832078,16.62260825,0.689407946,20.14694508,12.7494745,16.63140116,4.906897557,15.79917495,16.69730764,20.71272816,17.3923557,8.153693124,17.12261978,13.63932835,16.98972742,8.76778464,27.19695895,4.827156369,17.93339559,14.50265442,29.29780754,7.56934025,17.3955118,9.044548342,17.12094223,13.74108049,16.84470665,8.624252821,17.07427972,4.254849329,19.89561569,12.84273957,16.45495155,11.24465378,18.29388726,10.50446507,13.41531427,26.93282369,16.02428482,20.72916186,10.10783793,13.04984119,15.6431298,16.13819658,12.25694382,17.11037932,14.40804996,79.78950285,14.37245989,6.820249252,19.63606788,4.515893345,16.14064801,9.874354016,17.61642158,12.89713001,15.10812287,34.74891485,16.55853164,0.373573147,20.41081634,17.99014875,15.01400543,14.62662871,15.67513566,17.32877983,16.53027806,4.254538853,9.665922047,17.48511882,6.492850301,142.3305761,11.93526096,9.79025892,5.414350525,17.01053605,7.500652501,18.78651517,15.85326995,16.32395136,19.66391653,10.38161731,18.57155187,17.88214495,17.19077541,8.995844052,16.62230153,23.593131,12.91412953,18.66683163,10.12441601,71.5264106,13.39949161,0.580050907,15.01995776,126.0050185,92.01113532,17.06915836,10.93919046,15.32619058,17.10177056
16795,0.254340397,0.24668301,0.251472917,0.211137444,0.156205212,0.195057256,0.205026695,0.212024068,0.246608418,0.332518328,0.252087871,0.311576393,0.3232416,0.340228007,0.298256884,0.183479587,0.155794158,0.220032598,0.225170993,0.185794608,0.272522809,0.335808671,0.248003653,0.365486274,0.346928193,0.334329924,0.299941564,0.244381077,0.245343666,0.265718263,0.196649404,0.221145458,0.246075407,0.201326213,0.22756318,0.200679579,0.159144113,0.2606687,0.224048459,0.159873643,0.193792616,0.260171127,0.278348738,0.351616075,0.345033148,0.321129502,0.273362499,0.329943976,0.301897235,0.351485084,0.292674493,0.326568098,0.343424415,0.349813187,0.345498936,0.377983361,0.329234331,0.396663662,0.346153178,0.434535869,0.408182951,0.422285147,0.443514704,0.363623265,0.356600147,0.342065616,0.320105743,0.370152539,0.353550075,0.331507516,0.331690179,0.244421949,0.33254911,0.460081385,0.200305171,0.138237634,0.130202853,0.126705153,0.118401632,0.131176859,0.117737993,0.13208148,0.113041596,0.126823341,0.133777919,0.122228616,0.141919652,0.119195974,0.155113735,0.128339158,0.12125477,0.134199819,0.130070078,0.152647182,0.147146518,0.130395135,0.153250329,0.140851001,0.145347046,0.138579765,0.131961982,0.140295608,0.141142327,0.111356313,0.142696341,0.116167362,0.130996682,0.112187661,0.227837675,0.216349941,0.233400456,0.261759951,0.315488515,0.208543264,0.16723123,0.141162763,0.121461767,0.169335679,0.179333187,0.155062541,0.164496601,0.135104675,0.148996754,0.204467934,0.170758799,0.155110756,0.162302506,0.190716827,0.152618761,0.177154598,0.1516464,0.188465205,0.188718849,0.167284071,0.176197703,0.182217418,0.149318975,0.13768064,0.200663211,0.178258404,0.156331236,0.210770473,0.23613761,0.162297584,0.158144068,0.211126761,0.156188942,0.138106648,0.119871376,0.146467268,0.160038706,0.11957615,0.116786387,0.146926031,0.148000312,0.137777893,0.151611698,0.127629678,0.139498422,0.13379904,0.117823613,0.123956604,0.125825071,0.132704854,0.15044066,0.137457254,0.163628073,0.153327744,0.13592796,0.119878199,0.146145667,0.139963348,0.109655021,0.131092062,0.140280535,0.163455289,0.193205757,0.144569585,0.122245912,0.109276625,29.06457942,9.28003849,18.83718729,2.678752773,9.194360245,9.885357373,11.64984329,17.01627435,12.70688245,17.57769577,8.033294123,6.132022139,11.25404863,2.205124408,336.6993844,9.516221389,9.579638593,25.45366306,6.261315639,37.15578214,10.62969035,4.785845115,15.23749926,18.78817864,24.54752911,8.429751027,15.61524423,12.02914461,15.78102271,11.59398297,15.20200004,22.44084872,8.711654561,46.38282576,29.23483131,302.9319459,235.5212185,26.93171784,11.63984059,9.205581904,11.32492375,15.23687707,13.99366204,18.14325914,16.13125287,3.825747024,0.32989389,18.80121005,12.03003041,25.91020422,6.081451207,47.56653109,14.09831823,26.38656063,4.611074913,8.663917811,8.153569538,13.62592058,1.813240932,14.25531049,87.97742043,6.562414828,47.90380723,18.95322007,15.92745289,12.89236751,13.7474924,23.70826586,48.33533426,3.424652441,14.15496171,30.61451505,17.96095105,1354.755086,10.4283259,17.49288735,21.01274237,14.1871844,2.524732684,13.65295014,4.200700862,16.37510202,19.12319092,15.68749111,11.8914849,9.017463564,15.32655979,8.289868738,10.46562422,10.76174478,9.466183121,12.71418079,27.86699171,9.047802432,8.891998272,10.08780568,9.392534542,7.584858443,10.37071673,16.00678227,9.852089602,0.354978775,9.007183996,17.93254562,10.57373699,303.9892432,9.434718907,27.25277274,10.16775321,91.1730614,105.6321384,8.102799222,10.31362643,12.18649818,9.176185762,8.997308629,77.29106419,15.59048096,23.6105768,11.90662442,6.796606693,10.48499146,12.03439637,11.31014828,10.48798998,9.468796626,13.08912192,8.859223318,16.54867979,19.1732667,0.435497103,3.313348593,9.585469919,9.199167566,9.219313727,339.4749391,29.65344213,56.67762202,7.965556853,14.10141793,226.8001473,11.38096555,4.298429641,15.52794439,17.45914201,12.56135162,11.92741154,3.834035918,8.701509267,15.40453817,13.24343406,106.9004014,9.609782336,17.93733177,10.32964835,11.53317773,8.568901146,190.9286677,9.367035446,11.28866591,6.729060029,7.890459215,10.50480874,403.3090741,12.05039036,427.3430227,10.72928476,10.45204972,9.399404233,11.08518073,9.760573598,11.39094599,15.38630748,9.375603215,10.2309877,10.68075451,5.167548937,12.57811379,18.38373467,10.45526838
17052,0.130436159,0.128502468,0.144697065,0.145297423,0.194413822,0.171520066,0.155537309,0.150746968,0.139817163,0.149504467,0.165677199,0.223404738,0.30814933,0.1570576,0.145384656,0.143237535,0.141089195,0.140982733,0.139888507,0.228104526,0.233348564,0.248508146,0.189617343,0.166325006,0.158998143,0.157919583,0.166080225,0.177911247,0.133034641,0.163476267,0.154142316,0.217703861,0.185152424,0.214301546,0.172364027,0.222673782,0.189859223,0.203799352,0.197367931,0.215228657,0.202087526,0.21569815,0.219477311,0.225923555,0.214666897,0.237675121,0.234687046,0.22234688,0.178860749,0.150945399,0.1493292,0.168294846,0.137272016,0.217583415,0.216382208,0.197225729,0.197760763,0.225456407,0.217129757,0.241076779,0.242421468,0.23784514,0.19943554,0.208031694,0.215580531,0.22494304,0.21587071,0.219466149,0.207556986,0.144084939,0.164505077,0.171088518,0.15035863,0.083220429,0.089923051,0.0907849,0.08701664,0.092140036,0.096529425,0.097171687,0.102981457,0.084037237,0.082411585,0.074944266,0.103558101,0.087474901,0.122650439,0.087136948,0.090127184,0.084410939,0.087036188,0.09848628,0.082155242,0.087745554,0.092473339,0.091861504,0.088883102,0.090986863,0.090410147,0.096135367,0.092001374,0.10268224,0.094000822,0.095809945,0.094711265,0.088065831,0.107730141,0.111546698,0.093013714,0.097058816,0.094309128,0.0936552,0.086519912,0.086157209,0.091914937,0.090830439,0.102742032,0.088377693,0.077543041,0.112701011,0.068826693,0.071941658,0.072364544,0.073403357,0.072909495,0.078701005,0.085085166,0.085573707,0.072050261,0.06598535,0.077695182,0.124050724,0.199127238,0.19559273,0.189865751,0.203964716,0.228553636,0.354872232,0.372445343,0.354872478,0.231651632,0.208193435,0.244642986,0.185783813,0.174484892,0.144130787,0.12293128,0.132542441,0.231114769,0.261602279,0.219424466,0.212738288,0.228883591,0.212852341,0.236872467,0.175511021,0.192522701,0.167693512,0.312979678,0.298821521,0.354439007,0.33402846,0.207843435,0.104781359,0.110140946,0.096627074,0.108366266,0.091219954,0.083530046,0.098378303,0.070671631,0.098201847,0.097031027,0.086547136,0.102606896,0.090366651,0.123103025,0.098884287,0.148219918,0.117796545,14.11258421,7.330869446,5.860113546,6.165612,3.366538714,6.119728297,12.75104889,20.06054726,18.27803782,8.552726293,15.2520159,6.490655658,12.50713435,4.767620913,10.6566528,189.6260498,8.679331327,18.38866037,32.52255835,11.43953305,8.99119831,11.78438422,10.83426607,10.47078186,7.682512051,8.231285802,13.9295741,5.575497844,10.7601068,1.27561945,9.755447917,16.70428617,30.86870623,19.82436781,19.65555998,2.131838608,17.73514189,14.97539509,1.725363359,11.18833545,27.02682726,15.62319703,10.33739952,9.057377101,17.06138358,12.86763906,51.35723278,6.473926133,19.41178027,7.523044047,1.797062471,7.10007313,9.37130367,15.00024297,9.878189993,22.46371011,15.90706945,22.53668778,11.41647871,16.15458487,17.09404921,20.93084699,0.250158178,13.37228715,14.75851653,18.69503263,22.19401406,12.11241831,14.74289148,18.59419031,4.284797813,54.84079106,24.42456734,11.762495,11.99312074,10.31718551,11.84576751,12.52830736,12.80294721,5.46886306,17.9394155,47.45824042,24.29767469,12.7720858,15.77532252,11.61774767,9.504824618,10.94006749,11.19199989,9.8678508,9.042969755,4.922414499,13.83898551,11.1460501,9.43283945,9.50137934,1.602358603,9.353356166,0.681081253,9.987436684,9.593783363,10.32995178,11.40548465,12.64463879,1.219180467,9.742100977,10.5304232,12.5021251,9.710264885,9.921455559,20.39650292,9.479343633,23.8412569,13.54460735,9.781215396,9.012283435,7.995330651,8.186636965,11.63310356,8.422480334,15.37324155,14.84057411,4.160003961,9.909299029,16.06170674,16.38942617,99.52897826,9.048063085,2.474207573,9.993656442,15.45985972,9.579809371,18.30512266,11.51618532,128.7336691,1.966584557,31.85634174,3.659347222,24.29798403,17.08588743,19.42875656,15.67153945,20.94117877,1.999108358,5.995404797,63.05936507,6.513745448,9.531547846,11.66782622,1.673323132,20.29110574,11.49779434,2.2758114,35.80364007,24.42983376,25.91377303,7.042019276,4.781031114,16.73591432,12.77551708,3.153939296,11.49645479,6.216419234,14.35597801,14.89729857,7.503589644,9.230211518,16.02526604,8.587327423,13.54693413,9.165649326,7.199147579,16.76666792,7.4911931,4.957482099,18.19650051,13.2367428,10.18427442,4.95473524,3.651889633
17453,0.088673288,0.101462286,0.098029637,0.092445512,0.100183321,0.10989534,0.139749127,0.194098119,0.176089081,0.122514608,0.115608201,0.098175555,0.168808349,0.178364854,0.196863243,0.204851381,0.222282337,0.174444568,0.21178371,0.171501643,0.164662453,0.166477157,0.133083074,0.142538663,0.218464517,0.160400669,0.229510155,0.157632061,0.125514706,0.121556703,0.111266858,0.122336323,0.155709545,0.201777135,0.137045949,0.120556574,0.097811344,0.140368396,0.178148265,0.257219219,0.129471623,0.142976248,0.168862735,0.167898861,0.146607752,0.101111919,0.077994635,0.097355272,0.111317956,0.103391191,0.093303008,0.17931095,0.106768282,0.091843615,0.145915508,0.154109632,0.130095632,0.127319888,0.185222831,0.232246455,0.137917587,0.11461356,0.083613608,0.083707435,0.08353193,0.121917804,0.109981381,0.110681926,0.076465715,0.082958553,0.085606362,0.090540685,0.099313275,0.079995213,0.080918563,0.144807425,0.093107516,0.084556898,0.082838835,0.076412268,0.128030787,0.18648232,0.095693817,0.10393856,0.117385214,0.102877695,0.076651837,0.098287982,0.142784011,0.188183686,0.182332945,0.223212606,0.201618884,0.242626904,0.141855749,0.273814468,0.144361756,0.101520239,0.115336844,0.145270138,0.209853496,0.146263775,0.109485315,0.132291529,0.156323962,0.145467941,0.140353808,0.130759967,0.158916866,0.305384764,0.186237946,0.15681372,0.306053562,0.287369623,0.369817869,0.394341357,0.202402566,0.341424676,0.412263689,0.344925588,0.127829982,0.136470443,0.204507654,0.147046217,0.096373386,0.108263677,0.113654506,0.107234236,0.112450105,0.103803653,0.118638342,0.094266496,0.118474362,0.096642536,0.106377334,0.136940991,0.199012786,0.143087263,0.103746947,0.102689614,0.11178049,0.234678213,0.183258248,0.116753599,0.091610766,0.092241605,0.163459033,0.291391316,0.168306978,0.107391027,0.123897034,0.118650187,0.122395303,0.139573592,0.166259317,0.126753078,0.141260209,0.136957623,0.122654929,0.133137134,0.136055652,0.145911786,0.139238471,0.135489599,0.125462561,0.130444048,0.186300954,0.143219147,0.161124887,0.153151746,0.133520462,0.1419906,0.142789502,0.127935235,0.124889373,0.14458775,0.140144359,0.12827841,0.118969158,0.150458654,7.79924714,10.34404033,3.398026696,7.501114128,7.156491286,12.35472743,20.6902227,11.43269656,7.191881094,8.983777482,12.47566309,17.04061127,50.41300128,2.386302189,26.95110023,7.72588457,13.95722681,19.95258538,19.41097844,17.42423916,16.52308889,12.75895933,12.64396656,14.72048805,24.89057766,56.50626273,439.262861,14.29240058,45.51223278,13.44983027,84.25459161,14.93637954,4.971673109,15.84161634,13.50735236,16.36769208,15.12693816,13.55631207,14.69277119,22.76402063,15.75319134,14.49566217,15.03428593,9.188451265,12.19340981,5.778247079,7.074380801,24.9410104,8.185835761,22.34703476,15.83737414,14.02681038,18.56647565,17.02421904,51.34643886,16.17725636,15.34689775,12.97762819,0.967917005,18.74840074,149.3163764,9.699106064,15.19103624,18.89339083,14.89890545,13.72537545,518.8358973,17.02461978,12.16393761,7.097045191,16.18728388,23.47388739,13.81209168,20.18572757,14.17129214,11.27721296,12.57273045,13.20162634,3.660519283,495.3161722,18.1129774,10.89179932,8.684184601,19.3996168,26.72217148,15.84886378,12.57636194,15.79156547,21.72832285,15.68227021,15.60333151,15.52822914,16.29106304,10.24584802,7.778450214,4.826062578,15.73740625,7.666054909,12.36615082,0.088454926,7.82877962,12.24738859,10.38466344,18.0597656,14.85533723,23.73329261,12.20664903,11.68284927,3.585661692,118.1309326,18.49524466,11.84873527,21.92242912,0.701857425,0.0490925,7.93370233,10.97506639,20.19891727,1.823683777,14.74079625,12.31381625,3.581487163,14.42859166,16.24800632,11.30818162,12.86788596,14.96534774,41.61996933,87.08208785,10.5727019,4.502950849,16.23542207,13.83082677,14.67937468,14.45898836,12.78081325,18.42002553,20.34463128,11.92249907,21.60392925,6.438747617,21.63886262,14.50884553,16.59950174,18.41925368,18.23997422,17.27947129,28.38882976,11.55591622,16.86888177,15.85433245,15.9492472,0.300221103,17.62811292,248.767073,24.6078986,3584.967022,15.35570513,14.94160815,18.66130477,0.027465944,15.10485628,9.784707922,12.76907783,17.40132025,17.59637275,39.41883373,18.76612139,15.13236756,10.75226978,94.77442885,4.16250797,12.3200933,17.11485654,18.67337366,55.49792396,16.71534089,11.02468802,15.83027633,15.17314414
18177,0.43984265,0.42461211,0.453263351,0.409269588,0.454000002,0.3907818,0.383601285,0.388542302,0.380328068,0.438152267,0.425810608,0.403168335,0.4147136,0.398179,0.358574426,0.431071014,0.346223637,0.3743288,0.36027301,0.363305664,0.396270534,0.417172216,0.413324201,0.430278772,0.437656207,0.456911504,0.393414616,0.394263076,0.39951887,0.391686521,0.376509267,0.39733925,0.401456853,0.432430289,0.511778052,0.418246268,0.458453485,0.467054901,0.476033225,0.414942015,0.368854197,0.312075965,0.365050084,0.443442285,0.342072531,0.298455062,0.372976794,0.348615229,0.341742795,0.423743787,0.389320628,0.451978819,0.388802844,0.430642143,0.447447052,0.497799118,0.410144048,0.395871134,0.339313895,0.371057508,0.406240425,0.385069033,0.374881473,0.394282711,0.453141475,0.443356677,0.369562856,0.402464738,0.315361964,0.460317499,0.461342205,0.416969751,0.339741386,0.384994326,0.471727041,0.430512737,0.443198204,0.462030754,0.53886851,0.531707,0.418095586,0.414669895,0.396049097,0.393263754,0.372144541,0.388663778,0.370559899,0.318365912,0.354326478,0.331662377,0.32530475,0.338429516,0.281877453,0.363097661,0.343544516,0.318974384,0.289127014,0.346427497,0.312109249,0.298233654,0.299742697,0.28969351,0.300545458,0.308439038,0.337593743,0.304941786,0.353004058,0.352860334,0.293478742,0.291376722,0.332001988,0.260549278,0.23758804,0.23268647,0.282676511,0.266593043,0.264170608,0.268256698,0.268644019,0.242495477,0.287878901,0.289183763,0.279651596,0.302852701,0.277483235,0.319652601,0.256093273,0.254413526,0.270034878,0.246315116,0.342007819,0.275461709,0.289117008,0.255068733,0.272271736,0.262912034,0.259563505,0.292530397,0.290589568,0.275899053,0.302327586,0.29454159,0.262525411,0.281507771,0.329241598,0.423524413,0.310668862,0.271457336,0.316340017,0.262666912,0.272990495,0.292109975,0.295409709,0.287058047,0.312010287,0.263294632,0.241159898,0.249192666,0.259665564,0.257402334,0.271067676,0.282456945,0.262287175,0.281764777,0.397646826,0.424989784,0.380821941,0.416041143,0.347068265,0.483191915,0.330720814,0.316580419,0.318177266,0.308227751,0.301215011,0.302696695,0.331937602,0.287943683,0.421088758,0.400946626,6.275130144,41.59864919,15.69141619,5.44265004,10.62912471,298.0330664,14.25031023,58.42845439,18.14140181,25.43304609,8.506471187,28.39347239,11.34105479,3.686913755,16.04443536,30.68808908,7.873889923,12.8065957,13.62883781,4.36621952,16.08267507,11.89368578,119.2143937,13.74515918,31.97295571,6.046695613,9.140773583,32.37696721,23.89063009,1.369700512,28.0168045,17.31922752,23.00139693,5.52056546,8.905494523,14.86198882,11.61954572,14.90589539,12.6098254,0.62677129,178.5900645,8.031677736,10.401622,30.22692336,6.036639598,5.692985422,26.8193511,71.76339202,6.94880596,6.79980468,12.99816486,1.978933674,9.903540997,14.28024127,11.96920895,9.683071517,91.47388942,32.32786984,15.35949155,22.63282331,16.27221837,11.10475161,25.54849976,11.13278479,2.768868535,13.92882045,36.89180522,3.036919492,9.557653351,27.99502439,13.76880854,24.28532699,10.75619778,10.70359586,15.53142914,54.72353562,5.307061289,4.234123199,8.667917751,21.17513451,28.12283351,150.3989811,14.59636124,15.72576013,14.86795232,3.525774316,35.42037271,14.26197235,21.568452,10.61989376,3.466260976,35.41975489,12.91007863,18.87044639,5.01062117,48.8580691,206.5073188,30.83238762,8.846528717,15.55364254,3966.027353,15.58753765,13.59183178,14.40474036,20.23675627,16.2643654,15.20859581,15.76241101,15.85345093,17.99527603,6.786142583,14.47582071,2.706776733,13.51203565,13.55590805,19.87294397,12.6777409,14.67901233,1.192739914,15.60444643,88.75676457,5.937884361,18.64493111,5.022093288,144.1449076,14.22749458,14.91295627,28.91170813,16.11274043,101.3812729,2.230702798,24.3302725,1.517436139,32.44574758,33.74767463,13.71886373,12.94741304,6.739071946,2.391953124,14.84179398,25.37549228,14.75229838,10.28832212,16.85333126,11.2194634,15.64842058,4.238940492,243.2642779,378.7038395,11.54558908,12.35509303,16.83822606,14.19249137,8.435074171,7.905818618,47.85722496,40.60871636,16.83786089,26.48691206,12.4420694,21.35543983,21.47634693,13.5649339,17.39005768,34.13275726,47.22813792,8.344474609,11.46378381,14.18467099,12.68314453,16.35743845,10.23394825,23.85667816,14.86835322,9.704953936,15.53107923,17.48872753,10.98522145,5.575427836,20.36675403
18184,0.270553721,0.249906568,0.254732147,0.244754613,0.243379136,0.315447471,0.264865923,0.238841585,0.245194555,0.222849065,0.223765667,0.192514439,0.213678022,0.195523835,0.287905735,0.376586492,0.487631816,0.432120007,0.500519141,0.346145547,0.317537365,0.377092564,0.382089364,0.195547994,0.20834334,0.267287088,0.188925561,0.199116928,0.226149347,0.497305582,0.404102051,0.244435016,0.238168473,0.230495536,0.435468884,0.402174244,0.265289054,0.186913716,0.184597862,0.191869422,0.19135315,0.166432512,0.194596701,0.164388832,0.21236009,0.187581838,0.179833131,0.163034082,0.194893796,0.137013292,0.194844693,0.172134343,0.167358266,0.369598534,0.192218982,0.165559036,0.162004115,0.168319284,0.296083254,0.333356138,0.296248055,0.19324858,0.300078715,0.304370367,0.395796182,0.368128341,0.437504003,0.347529995,0.309619343,0.216290776,0.256494682,0.342430118,0.330778347,0.294882377,0.333391678,0.373871103,0.522996222,0.531889427,0.544147672,0.320831734,0.293585063,0.332787425,0.274059346,0.378997577,0.620555049,0.459583122,0.314321414,0.329471375,0.317126316,0.349703375,0.380827675,0.388703532,0.342431649,0.327532139,0.320161171,0.358596194,0.307837562,0.471228541,0.486556279,0.539631236,0.428065804,0.486636284,0.379285878,0.287270629,0.427757384,0.4345824,0.462509185,0.293456302,0.203142939,0.333717974,0.291507242,0.203171239,0.222235241,0.197918915,0.298354774,0.179404576,0.173746853,0.167037261,0.198539368,0.19291281,0.145220363,0.155048017,0.145552149,0.154060569,0.144287776,0.143459131,0.151325012,0.130760315,0.13083638,0.228880102,0.49004321,0.282988259,0.423041823,0.303236619,0.300595707,0.292977457,0.35338826,0.355515901,0.405152757,0.369914556,0.372465334,0.243553854,0.235525923,0.232740073,0.264883356,0.289136407,0.330774286,0.147377481,0.135399578,0.14036083,0.120662002,0.127963586,0.12023196,0.134528685,0.136385166,0.130477327,0.144955638,0.137379149,0.135350507,0.137314417,0.138486715,0.148438112,0.156580746,0.132157199,0.154029221,0.161140869,0.130801534,0.147743619,0.43298762,0.176413809,0.130413932,0.166873489,0.181561814,0.140058796,0.131517038,0.127943124,0.128190771,0.143125963,0.12174572,0.127177682,15.28701366,15.92660285,996.9064168,28.69692046,35.22029419,11.94288889,10.98555151,220.9248002,3.188399682,12.50675295,10.50619009,24.03771068,13.9222981,17.22715997,14.92448216,22.90109065,3.874474218,230.8482995,16.77912441,16.0910236,14.4014197,3.358094162,20.58104038,3.577314572,13.86320022,7.944341864,14.7178379,16.16622263,20.2641464,17.21537657,28.02639476,16.07695791,14.27141802,14.34597049,8.58609262,77.81209899,16.1835766,17.44550759,15.75172368,13.79402529,22.17011763,9.932026293,4.527329605,6.53526427,8.919570843,239.3028754,11.34099511,49.21507448,6.244536431,14.0174675,181.3062702,11.93022686,16.49164294,1.392115326,67.51063299,16.37671466,16.52995097,25.96613012,4.482229414,15.78196041,19.29982536,123.2632795,6.511175016,15.67237869,110.7980886,13.12266811,3.143047065,13.38253041,89.23916946,12.69474306,2.3883471,13.80243108,8.360669224,18.9893714,7.51294009,36.77233548,21.80375367,66.39245128,33.47768754,88.45624942,17.80913628,20.34249247,26.7608793,16.44854028,15.21440343,13.5627424,31.524198,10.84425816,19.0508268,12.44142376,14.89961127,15.33414771,97.3403208,13.95051102,16.37725919,21.1302503,14.49533495,1.932337191,19.348434,22.1389249,10.5988869,26.00991191,3.567953821,16.09681089,35.54394302,24.90866904,17.05406652,19.51414096,22.96458634,14.81853049,7.763785708,15.94116861,109.5359589,15.5237227,14.09505933,19.47087431,16.33675302,19.14023837,13.38906282,15.60875541,15.16558616,16.71242034,77.91684438,4.100482362,6.714888232,15.03314891,16.51325027,17.64569195,35.55789506,17.62930301,20.08488498,22.60129413,19.07491532,15.99796701,481.9564658,15.2549117,20.65729154,11.30781596,16.30157646,14.65018585,52.97953484,3.369935063,113.4824852,20.75413562,21.8954075,67.02944745,23.84389706,6.82073891,16.88203655,3.7718455,16.57065511,10.78885854,9.451759365,20.04323541,15.54092899,17.02022735,20.71009129,3.275288268,14.2121291,5.634258451,16.31834858,17.14142148,20.44789762,15.6264431,12.77541291,13.09695227,17.23444192,9.727904764,18.06715687,95.26152403,38.99874736,179.791347,20.29391117,0.788798925,2.067149423,144.710641,17.02222056,12.3010389,8.262051343,26.75079122
19088,0.033967779,0.033010399,0.032925655,0.096579536,0.252300614,0.249310101,0.202659259,0.230710792,0.340427598,0.313947541,0.408395767,0.365351094,0.329196562,0.299156302,0.295937422,0.298901477,0.263807593,0.299273932,0.289965293,0.349210479,0.385419166,0.376584146,0.435799286,0.482350997,0.358881122,0.387594115,0.424395018,0.398994528,0.370045152,0.356476299,0.374246892,0.351846845,0.255425084,0.214661289,0.236134409,0.184181793,0.198248702,0.210813625,0.204633942,0.165010766,0.223562868,0.223564674,0.201500178,0.21478724,0.21102481,0.212949935,0.214031024,0.230490939,0.241025721,0.219793683,0.231565767,0.206293043,0.266220257,0.206360626,0.199727397,0.206890147,0.211322225,0.203716403,0.306768178,0.249659776,0.242722986,0.299241335,0.330928713,0.378637487,0.454902583,0.407078929,0.337547018,0.332668857,0.404047217,0.331611309,0.317401744,0.402860634,0.554496792,0.498726414,0.434660764,0.49308097,0.575484352,0.582272034,0.506688306,0.560387622,0.576223312,0.58112743,0.490160006,0.524520727,0.471671508,0.492350563,0.504652381,0.513775759,0.533238611,0.456602329,0.497661566,0.524098633,0.52994241,0.559877928,0.528083089,0.458736571,0.467807042,0.449349168,0.515296363,0.464317906,0.605677995,0.703720683,0.479814569,0.513631296,0.486213413,0.524054475,0.512903105,0.447464567,0.42889568,0.514476725,0.512493768,0.468241762,0.507013661,0.486812014,0.524179301,0.442957864,0.502715063,0.428490814,0.456172622,0.435627761,0.485421432,0.426050855,0.40164526,0.4404541,0.548630881,0.542184542,0.522442376,0.543236848,0.484767418,0.429375324,0.488905795,0.422275442,0.436671994,0.412209382,0.298306176,0.262009935,0.272558306,0.290859732,0.311296255,0.229071599,0.257374989,0.242096653,0.287367714,0.326394553,0.348615474,0.305181631,0.303542893,0.290686564,0.259521438,0.308438134,0.28918127,0.245969286,0.255845999,0.249797344,0.249597968,0.21589057,0.191377205,0.282313671,0.277140672,0.244891426,0.219624258,0.22593535,0.217477696,0.213898417,0.223927377,0.248304177,0.235784992,0.241179287,0.21865498,0.209187748,0.209131212,0.230211263,0.230202984,0.224822519,0.227066228,0.253702168,0.231813141,0.230383562,0.390747261,0.23391831,8.253894889,8.390462842,8.25373378,11.3833641,243.2667008,50.94113945,63.01529228,44.75570234,10.57943305,6.295838457,14.92630456,11.13042961,83.95454689,1.583099394,6.148231132,11.35030241,33.09882472,17.95141603,14.0750103,15.93421632,3.112462714,16.88027354,10.12098793,3.812827859,68.27660759,60.23500439,15.4755889,21.50941708,11.1911576,15.41162699,16.2621793,16.60749292,14.5273114,16.35189088,16.58729415,11.24282604,18.69639739,8.361016812,16.80926604,6.286841135,6.988912234,5.940612987,10.30759347,80.73387571,6.370104083,3.861286844,14.08229658,9.300037505,8.944614449,6.710320055,28.1210518,92.36213312,9.941503075,8.65002281,9.717564999,2.96334774,8.879540461,21.01948166,11.60321591,6.526110002,15.94921068,18.55177719,16.57274075,19.0137934,16.21127864,18.88544201,85.92221549,35.89032039,14.93802668,4.973371183,14.41776392,9.691314702,7.264049994,8.381875117,70.80342873,15.59873082,10.98872568,11.53395273,10.14706152,56.17812581,24.95823222,8.190155596,19.20765335,5.819374513,26.67622087,13.0606096,7.918385789,9.077583642,59.30163669,92.96094022,19.9114003,14.0460542,19.59240013,145.4656615,375.3778679,24.30194878,18.62520096,21.34700824,11.088606,1.939035429,5.668020495,17.32476193,14.53781101,93.59085894,140.2921424,107.3876861,20.81504569,8.759393746,30.09760762,7.844146521,10.8137779,134.101776,13.25406002,2.780120205,619.0161526,6.615443695,2.549721547,17.87713391,10.04346792,5.061538256,10.09608284,7.234128691,12.10985753,84.96133419,14.65863538,21.68385499,29.17652129,4.65728941,16.13716401,22.81941893,61.16416319,13.70437132,13.3645816,46.09965175,13.40799955,2.245179874,10.27368881,11.45905298,14.50790405,11.06146555,7.291680804,13.59069158,16.40016824,8.606606329,7.880402306,20.60183676,27.42871886,14.95853824,15.51608988,31.9335719,12.1630943,11.92453115,17.12131758,13.78364852,13.36273133,10.40952224,9.981020791,13.2645934,14.41449115,14.90202841,5.767680976,87.06059845,17.81441137,4.268547727,5.869407128,24.19325224,4.595913904,11.97777209,8.484069202,6.627005726,57.76692299,84.2261944,9.482486755,13.96086366,5.643739081,158.9201214,17.79777267,0.329991563,14.41669905,9.41969385
19090,0.030386955,0.029087185,0.039452428,0.184051803,0.335249697,0.255886787,0.273489165,0.330899147,0.329279811,0.315310611,0.278067683,0.289449351,0.302648133,0.362474797,0.388853052,0.335343659,0.315724489,0.237802583,0.347832789,0.279539239,0.307851593,0.278861976,0.334490883,0.295311462,0.281347369,0.294196859,0.28563516,0.28451224,0.284438719,0.289080239,0.28664829,0.289823634,0.288619496,0.284661998,0.297447879,0.341548315,0.428568929,0.409047463,0.350427805,0.238394943,0.339214254,0.223335743,0.190722519,0.183591167,0.180926421,0.154347609,0.156706788,0.185941637,0.15952598,0.142012305,0.142402343,0.142678966,0.153629504,0.172405107,0.148196105,0.185771085,0.176213288,0.149528505,0.132592768,0.132138224,0.172214921,0.149849913,0.138660752,0.168630554,0.137001098,0.146160582,0.151841864,0.147512992,0.134065387,0.141771723,0.137372407,0.160512592,0.150068054,0.142728964,0.153968055,0.131541815,0.125414678,0.132866357,0.157977649,0.145368609,0.145430683,0.14501608,0.162387693,0.243108338,0.244262603,0.265207755,0.251952418,0.220195708,0.312104361,0.269820445,0.328818716,0.327711931,0.28310444,0.284708335,0.212720559,0.211053546,0.145515814,0.14843615,0.172404015,0.23083724,0.16564484,0.212756115,0.221102123,0.179108506,0.190882609,0.183492989,0.171240781,0.162981773,0.165220854,0.142075819,0.187304825,0.218380688,0.210249309,0.241930389,0.20433944,0.242082572,0.302888761,0.346814706,0.308762803,0.198505008,0.208037093,0.16825711,0.20433561,0.220525566,0.21339707,0.203908947,0.191158406,0.277013221,0.19529229,0.216014622,0.184038113,0.18560646,0.194616035,0.237115485,0.213103156,0.225208068,0.165889566,0.162124628,0.165512265,0.165638844,0.18987332,0.244462863,0.247356791,0.188901533,0.201560144,0.151558144,0.148547468,0.172610332,0.297393361,0.271410425,0.180539135,0.190816576,0.166082473,0.215047706,0.204618048,0.216513886,0.209423058,0.245366354,0.261332005,0.238520578,0.211686183,0.251970245,0.194314928,0.192565671,0.169463686,0.177001397,0.181011496,0.245487549,0.262237888,0.278285474,0.24415035,0.227264416,0.181868613,0.27163872,0.413602135,0.277395245,0.466420271,0.307622765,0.22527418,0.181605918,4.890987444,6.605159248,6.605159248,3.693254933,23.82926993,19.57801784,3.294997804,18.7775889,12.75628027,24.88083299,15.27751183,10.27240463,11.81819475,12.40226428,12.28821466,20.67185701,72.89400939,19.10057858,7.26515737,15.11926857,3.53720669,21.10863454,15.21034203,13.10142592,14.51339132,12.65518393,8.141781875,12.08539419,18.51002968,124.4721891,13.34801817,27.80102429,16.49535155,11.03537674,28.96532482,15.71116541,27.63630274,5.728221122,21.71424405,47.885881,2.037269809,27.22790087,335.4460558,14.79139855,10.95210472,13.71083703,1.475184856,10.27283344,17.47005965,15.84976469,16.86811344,18.42967124,15.65241586,10.27827102,12.51268839,12.66002435,2.968227684,4.560381282,25.86362347,14.96679201,9.297552275,16.83607454,3.836589527,27.28639644,8.414704453,16.8968861,16.51103381,16.14485779,27.3755162,7.418916199,5.711339688,17.28722241,18.42805407,16.66193355,1.832625797,19.4557827,55.36021953,17.09856089,30.26059544,17.71006085,18.38649735,15.84132165,14.36632043,18.68912566,16.00290092,18176.81699,17.5113278,17.58862635,4.430504084,15.45441008,22.20525963,11.39335689,7.720201591,16.74921093,11.25682807,219.0410336,10.93644804,3.997076033,18.37079205,10.35673273,2.030320108,16.08896323,16.1403767,52.63929424,87.2600408,14.93486737,17.272418,12.72809255,16.67746945,20.099585,20.20095436,1.437618669,7.452645668,16.7498912,17.55295561,62.49969663,12.81180362,21.11632708,14.66490143,37.98880615,16.07330058,13.98882655,14.75188786,16.44515046,14.08387758,17.73706629,19.31299346,3.112083757,6.413045654,5.425985526,21.22189296,11.73422565,20.77267026,10.61828079,5.441603501,16.34102229,16.2811733,6.650407218,21.29812537,268.3151797,698.2559905,16.91613517,17.8150033,17.64250268,15.01384608,13.46237454,4.242517107,14.74933259,8.893563339,9.456736306,15.62117925,10.35040164,16.93445993,11.56408069,28.04775181,18.7194267,18.98909963,35.46044523,3.299972993,17.13601004,94.74141418,118.2945337,13.98824991,17.55486556,20.75092705,17.55171605,10.33966771,25.17357111,15.83089629,5.786438298,5.330172384,16.35356159,16.82152241,2.95844111,11.64334328,15.58200395,4.280369607,15.17042169,13.9274046,17.9207946
19093,0.033689341,0.034978981,0.09324724,0.115399143,0.108138862,0.102564867,0.101509568,0.117140475,0.101434633,0.115099003,0.112341079,0.115422533,0.10802155,0.112889889,0.111065921,0.114247067,0.106674429,0.095353411,0.111300026,0.118929945,0.11136197,0.114024147,0.134800852,0.103386611,0.120521601,0.107008237,0.108092326,0.134117576,0.106999019,0.120805235,0.110456128,0.108261414,0.122520584,0.129166185,0.139222122,0.10261331,0.142497368,0.120363682,0.09822142,0.104894725,0.106022665,0.105000819,0.105113074,0.09812806,0.101175002,0.096040188,0.108391395,0.110882364,0.120981574,0.109097468,0.093504136,0.096786849,0.097105003,0.122966932,0.125703823,0.103554161,0.108335576,0.102029315,0.113711242,0.104036712,0.12635439,0.135009123,0.108257478,0.112138416,0.158301549,0.123211616,0.095994058,0.109594238,0.100607152,0.100379015,0.116793672,0.154788762,0.144215142,0.11270861,0.136747509,0.199497404,0.105114729,0.129314285,0.127583669,0.110658568,0.109677734,0.108245854,0.137649174,0.14567433,0.109780409,0.111944118,0.113082058,0.171253893,0.152155172,0.097143778,0.107502552,0.109425657,0.109802637,0.106707596,0.099219038,0.098747408,0.104104639,0.109092838,0.107624896,0.12187795,0.10761026,0.106862732,0.093041887,0.102515702,0.095627077,0.09700592,0.114842722,0.126284698,0.105230051,0.108366809,0.112401169,0.08983691,0.113192293,0.087184371,0.119872014,0.099095799,0.112738744,0.174074175,0.167618437,0.12094741,0.119215561,0.117714324,0.114419868,0.110121909,0.118748181,0.107946435,0.117023441,0.112417066,0.113804044,0.118000477,0.116355477,0.108815978,0.117744702,0.113483272,0.102241074,0.112304242,0.106173281,0.112025084,0.132015262,0.155615199,0.11938044,0.112866893,0.108196803,0.137564854,0.112803192,0.103870976,0.100371966,0.099635949,0.114540711,0.12670311,0.122563051,0.108617432,0.110228872,0.105975885,0.113863605,0.117729166,0.136103976,0.145922649,0.130457713,0.128686066,0.116006236,0.131770633,0.122417939,0.107543054,0.112171099,0.123329501,0.121172656,0.126908788,0.189906016,0.1458515,0.109753339,0.107763348,0.117587421,0.105549778,0.112512297,0.107890546,0.099530362,0.10967652,0.11407171,0.103145286,8.350782068,8.528555586,8.519515655,10.86650331,15.55439148,18.79096765,7.997259109,10.66067555,8.602189545,84.98148212,5.428784257,10.48271537,12.10531055,1062.338791,7.867720209,5.937818175,8.117265912,7.985956625,5.339162876,12.45118116,9.353972845,8.80272561,2.055603296,1.18942952,8.984674204,9.188862598,50.15024994,9.643303797,0.284575427,23.59611314,5.27013373,0.129698884,9.193784486,127.3152245,3.797250331,19.38991619,8.979022914,0.741547477,9.060901181,14.72180416,8.025243114,10.13109456,41.81820571,228.4633976,15.8117329,19.96988173,9.640931814,8.996606156,9.325907221,13.45363433,16.86909135,16.15346669,9.27648733,8.830986678,73.20513199,4.180105263,91.70458332,6.241933731,14.93028186,9.254303395,3.486122494,0.637140156,15.06454172,18.71472423,8.725407892,28.71874116,21.49548504,9.176544536,8.543572333,9.198495023,0.88742144,6.209474347,91.12996507,70.69201895,91.7596174,13.53638511,1.242962098,4.169699755,15.90814567,12.9800967,15.72179659,8.308395513,10.54137096,10.0092464,13.67185185,3.391678489,6.405869435,9.128542768,18.73897637,8.36780453,9.469142341,0.364494815,7.532001916,18.64978338,6.907713177,73.76727892,8.768062348,9.31764093,10.32823862,6.615709495,111.5772918,1.191483124,9.403817486,20.86513616,13.18497369,8.962549483,2.805729051,8.396891502,19.12852527,6.534026803,13.22921198,9.937954201,6.275618705,7.584391433,8.931955834,26.67646754,9.376419601,9.445210615,10.89011031,6.233026704,5.573340082,10.70355179,3.077971907,9.879605425,8.017877434,19.6738164,11.91946742,9.588117164,19.89653392,5.569039372,8.438107428,12.79678895,9.866729746,10.27298588,7.707932708,9.791575468,7.539020724,9.669457151,1.863387658,10.23513166,8.412161858,18.76444108,20.71713053,3.652044279,10.17121107,3.696597027,7.673374468,8.925250004,14.85486671,8.723358331,7.71909786,10.14802702,9.529285316,8.086652661,8.904535604,6.739051818,7.787140012,15.99811449,9.385370544,56.58936817,33.40037453,14.49109681,8.810306652,9.300902357,11.5089841,11.15731995,9.192976507,17.18402104,19.43339198,22.68259871,7.317517541,1.839618777,321.1475783,9.095760539,5.66866955,8.720216917,16.56771652,11.46194501,10.76744788,9.853680648
19140,0.033279389,0.033095896,0.037031314,0.182915308,0.22012846,0.242687589,0.270440369,0.257274855,0.330625994,0.246779377,0.391833087,0.334558564,0.31679033,0.29264509,0.277408946,0.324600769,0.30713878,0.305647132,0.304000729,0.347676807,0.311206137,0.347738851,0.344161263,0.364711169,0.550176441,0.352313088,0.404866001,0.345166754,0.320149072,0.294404752,0.275243131,0.267816574,0.290427065,0.301295574,0.312928587,0.304476019,0.365230949,0.256952401,0.270407786,0.308829836,0.254228979,0.196788278,0.192912244,0.284610772,0.293916366,0.264514512,0.279262589,0.26195615,0.312144474,0.215407376,0.202508313,0.228288763,0.218096687,0.256748178,0.221157192,0.243107234,0.231586255,0.264560277,0.28034198,0.265210956,0.327116528,0.247409948,0.242971868,0.250582705,0.213527479,0.206176346,0.215905613,0.218127149,0.195394289,0.207975494,0.215598511,0.19453865,0.23502543,0.249559826,0.237485058,0.224487204,0.217435727,0.197155746,0.215575516,0.229508074,0.232162167,0.186193537,0.202372525,0.276911938,0.252922489,0.259870004,0.254256484,0.247183794,0.246897654,0.2287846,0.234972383,0.230361335,0.257251119,0.212086752,0.201035584,0.199680469,0.184056475,0.271940422,0.23806857,0.25841761,0.263625639,0.243486032,0.233585685,0.250609926,0.203047906,0.19305356,0.209690645,0.209784076,0.190067173,0.242112825,0.201865753,0.19848146,0.19631298,0.216410992,0.209318154,0.254571694,0.254370262,0.298162397,0.270161257,0.316389062,0.285035568,0.233385648,0.261145737,0.183680855,0.227071269,0.234323249,0.258812457,0.237457754,0.267619517,0.240629355,0.248392811,0.234744285,0.224228127,0.188352526,0.206245404,0.205996,0.216097438,0.229041782,0.243792401,0.241887901,0.206260311,0.249746555,0.249348248,0.229131989,0.223612641,0.224072937,0.249184588,0.253344193,0.24718056,0.263927174,0.257236696,0.233077998,0.260552523,0.253412638,0.279885797,0.226105732,0.210601827,0.19505822,0.163763706,0.184052199,0.19529603,0.22590313,0.246441087,0.271519376,0.251932371,0.208874919,0.203963756,0.238210649,0.232395504,0.284175642,0.243032221,0.259111498,0.235570588,0.259414001,0.238901335,0.241891799,0.253449773,0.262932454,0.247769155,0.312070109,8.024281445,8.325863192,8.528793279,11.07762116,15.95365016,14.80768478,18.86831576,7.976011295,81.14814476,17.66264022,18.52603249,25.80148644,22.50444213,10.46233227,30.46141398,15.87959415,25.64004784,62.33260467,5.39297524,57.43288198,19.3963184,4.168438361,24.94665146,0.268144721,1.585549823,7.974960383,14.94129064,16.29199492,15.04742488,18.72257477,16.0987136,26.41609786,7.602729324,489.9380678,19.14008052,16.01908123,5.942635076,7.944439153,14.96195859,16.15085517,10.49214124,11.97341062,13.64621983,15.33486481,33.35074641,11.40170607,16.77954648,12.08066636,8.996360765,16.24389857,21.85620942,21.32545365,15.07605159,13.93471183,72.39887854,4.400162048,29.9881497,12.7568999,6.695567452,16.03733962,18.49486625,22.74107055,17.681024,21.03106435,15.69689299,9.152962301,21.25462842,9.595659855,17.96470659,24.88742777,10.95612382,132.2000733,11.2759265,15.23778375,23.07315716,12.70674261,7.293324564,2.719394094,59.9389193,12.46548438,95.37349971,18.26168216,39.52054064,31.36291365,13.89166271,12.80650671,11.43982675,13.13588208,8.67014482,16.26450726,1.569531303,8.595381575,15.42165006,13.89018799,5.079055321,506.0964107,11.12638379,18.87304652,9.309239937,16.80684824,16.09786395,10.25314255,172.2554162,8.479762205,30.63823691,1.903806425,228.0743725,9.677291898,15.36655773,9.360544501,16.36702017,55.87565284,10.19535425,12.20194484,22.78769388,15.76822461,28.48762395,10.04968386,36.88483367,20.26691922,15.97486836,51.4458546,14.76493909,7.956214014,5.931199069,46.32551516,10.38592578,16.38289688,47.00168269,61.13077261,15.98242654,27.3907737,15.27045093,20.29930938,2.313593849,85.98367256,10.31398756,22.41767271,22.140539,14.59685033,16.72588714,38.44622702,5.425870262,2.062245616,11.81501502,42.80075913,26.15597252,91.13596634,13.66367645,12.6895104,9.220456533,26.69747631,19.98344802,6.348765349,26.56180755,10.77356368,66.72689952,34.94075415,16.21806851,10.48000659,7.088954135,44.07138393,11.90703661,12.72923556,42.42485786,10.17525649,16.18138913,7.734819922,14.11702581,16.3016188,8.815223634,15.89732774,21.80095878,7.100387625,13.46488871,8.87912108,9.817643524,1.91991792,8.695957647,367.2076416
19830,0.036552102,0.040284254,0.116343644,0.305897034,0.354367103,0.338321285,0.335304413,0.402900898,0.405393978,0.426827175,0.32135915,0.282618575,0.282011189,0.268581404,0.269193577,0.344166234,0.269224672,0.257580793,0.272226639,0.259486261,0.266033092,0.285839852,0.239003308,0.276951728,0.277929365,0.265886272,0.263516219,0.248617725,0.272934078,0.321462505,0.445091651,0.427556113,0.295813749,0.264882926,0.301083277,0.276436808,0.295637063,0.24798055,0.221869842,0.281851834,0.270685022,0.298234344,0.303750248,0.342229559,0.272306562,0.276027384,0.251101601,0.314225788,0.261925254,0.216420572,0.33135807,0.358991653,0.336451614,0.328381556,0.361708608,0.583228004,0.519730484,0.324672326,0.244061781,0.279061034,0.336294536,0.307707459,0.315764691,0.324256211,0.251772713,0.27664401,0.341470072,0.349688151,0.387290699,0.346086938,0.323398487,0.297908608,0.304557436,0.36801272,0.348514067,0.433728007,0.387301982,0.321190745,0.314506996,0.309331318,0.303969272,0.294444141,0.3151707,0.325712289,0.354309945,0.339203553,0.258589326,0.269819899,0.281471153,0.280401655,0.25794699,0.303480265,0.355889623,0.267944833,0.294802136,0.281205188,0.329290698,0.278409694,0.29048704,0.291844681,0.279750314,0.316725435,0.299480003,0.255959145,0.23818453,0.255111277,0.253311206,0.230606194,0.272486396,0.308027399,0.240077228,0.239974693,0.242894029,0.27586537,0.278617531,0.289575671,0.258873238,0.257745848,0.280651295,0.283348922,0.367315508,0.313237464,0.299739631,0.319010171,0.327196294,0.262795528,0.285993872,0.309590207,0.298466677,0.29758243,0.251496027,0.242482776,0.28134098,0.265960282,0.309063065,0.310236512,0.409349765,0.44576698,0.285756899,0.377309537,0.329176914,0.319293039,0.343449769,0.417883614,0.391336619,0.323868047,0.336633749,0.289710139,0.304324971,0.32780697,0.322091203,0.27370902,0.227925104,0.309081247,0.305684103,0.311211535,0.311389103,0.289509102,0.314416452,0.294742594,0.279638249,0.235316064,0.323504299,0.292312153,0.289863916,0.287643514,0.274458678,0.280341207,0.267270494,0.293141689,0.239672987,0.282895274,0.285004818,0.264329498,0.185397182,0.265615527,0.101039931,0.273974426,0.347088924,0.267397603,8.047790962,8.644389142,10.33255661,14.99360238,17.00696774,2561.334078,9.522111564,5.355197475,18.03918412,10.62556756,45.34254983,10.03917193,15.17266001,0.168747676,26.33101295,20.32458057,17.45721221,14.76915624,1.077946541,11.77794339,4.85911179,15.14608679,46.9611133,130.6932205,18.93781268,16.39268267,9.833088572,25.07409504,19.6490453,14.95178071,7.295985248,17.28746345,15.72256298,116.5277084,15.19933103,15.58424773,7.434950879,27.97284612,338.3806704,16.83802181,10.31731728,20.50352952,14.18711725,17.86599178,13.13962255,11.39316683,22.40808121,36.28933978,16.48799951,12.57535242,8.709191479,13.52713883,7.776450544,3.836534066,21.09342721,19.57639393,27.65029482,15.13274573,15.47523866,58.95020994,16.10336179,13.45646267,4.970712341,19.07601169,15.17068972,14.08990456,16.13263257,12.61065381,8.247465962,13.06660986,16.35640064,15.71855461,13.71208086,6.515663598,28.45278558,21.59046086,18.59678082,32.71195937,1.401418491,66.34956397,14.72858341,11.26312966,14.25679044,14.76358354,82.91287829,13.50606876,22.20178025,17.09177989,23.72791044,14.99904316,2.001228462,15.85190285,18.52867476,18.56264847,15.83811998,16.51713361,14.54593167,42.3733726,21.30912089,14.02415684,16.70669829,17.18800441,14.94816498,17.81221506,15.54290517,16.69332809,16.41185182,2.188118088,15.62422396,14.56020777,14.32245166,13.53959068,0.924012147,37.77861531,3.603378381,21.79106522,14.53105354,18.02648252,33.81013217,15.11465532,14.43449869,27.27394718,5.758672094,15.0452598,7.915539326,549.5861973,18.22943955,35.31543961,11.6460454,4.270515426,12.40229805,11.20192925,12.4663015,18.82882443,15.57451583,4.415909273,21.20160783,40.91029401,13.84211653,23.50982951,5.201166253,11.73056938,9.036471793,10.19484603,18.42978925,19.86838125,13.34274156,1.608184467,11.69454371,14.26074468,6.866243384,9.474752039,13.30088546,5.634217076,13.90522067,64.21581512,173.6283011,10.10646812,21.62157913,14.31364419,30.96912267,14.17248158,32.42150431,98.38476835,11.10062826,14.61508232,17.25519532,16.74441308,21.00924209,11.3067847,6.664942685,15.69045499,18.54230517,2.501685158,14.13058779,21.95561208,13.6184646,12.60312587,19.88074142,203.9293912
