418,0.354160237,0.319062795,0.346421503,0.328079294,0.329430194,0.329730682,0.302108117,0.333733952,0.348243692,0.355642816,0.348842266,0.329223733,0.334277812,0.369824751,0.341389902,0.386348138,0.378580134,0.369894215,0.382784305,0.376014813,0.376725825,0.384986948,0.354816491,0.385989347,0.382531393,0.366470855,0.357878227,0.364617272,0.369065291,0.386369886,0.37052803,0.348384828,0.380852436,0.383459557,0.373230438,0.342064276,0.358983784,0.366735472,0.364868876,0.424937085,0.418151419,0.381718638,0.364521806,0.356136275,0.37993194,0.378971074,0.37314354,0.365917359,0.3699054,0.370197809,0.382569201,0.34187676,0.388570474,0.399578345,0.36529802,0.367760168,0.353101339,0.350750003,0.37711793,0.325596464,0.378575032,0.415827895,0.380604693,0.363640206,0.344717532,0.360586518,0.348255587,0.387274928,0.356241754,0.380723181,0.400016007,0.363733865,0.367869807,0.379619172,0.383841479,0.345060633,0.383875036,0.364292954,0.415434351,0.392289909,0.367072105,0.374641493,0.377774291,0.371549028,0.364839305,0.365205747,0.388841743,0.417902337,0.411738522,0.398754617,0.393428906,0.427646097,0.417711105,0.402830994,0.378233477,0.3878625,0.389712851,0.375313527,0.369527106,0.367418598,0.381994553,0.431627926,0.443112327,0.3886193,0.434167519,0.370771058,0.38024309,0.420300952,0.42327072,0.404315138,0.382956492,0.388082786,0.392407422,0.379404158,0.36951213,0.387511245,0.397891307,0.392076095,0.376351525,0.393160408,0.423969437,0.384645191,0.398675935,0.337506181,0.349714642,0.408541914,0.401920228,0.402353186,0.38098237,0.377776913,0.387042059,0.415862293,0.381580204,0.387811949,0.397428922,0.38349442,0.363435644,0.359692377,0.355029113,0.380982877,0.383840358,0.392913687,0.386271381,0.394895776,0.371722897,0.382624923,0.365780208,0.397585565,0.404449555,0.390019295,0.395990349,0.374483163,0.382040642,0.37762855,0.386946972,0.423026685,0.366940157,0.37565516,0.394448431,0.394535078,0.372233499,0.382615118,0.377256449,0.384861514,0.391741147,0.370585028,0.358038411,0.365183667,0.375438145,0.394216921,0.353204698,0.354181405,0.346531697,0.394236084,0.378736436,0.379067024,0.339865556,0.366844412,0.390412272,0.366963547,14.14772527,15.125122,17.06815736,13.65163178,14.40280739,17.83454495,16.62730002,15.33031075,14.1367094,13.40756974,13.72979024,17.30679335,16.80057661,13.45092438,13.15633109,13.34255001,12.79913786,13.11406318,13.12301075,12.97712578,13.75775013,13.19483804,12.92299098,12.99347462,13.1295716,13.28564703,13.43588851,13.27447815,13.21787726,13.03270841,13.84177617,14.0044729,13.07673207,13.02927027,13.05548119,13.99332628,13.60990304,13.22853055,13.19241916,15.36050066,12.64464883,13.41595756,13.20591944,14.30958674,13.27188156,15.06320289,13.33077677,17.10737587,13.71688909,14.29659053,13.24161567,16.05884073,13.35380656,13.78852473,13.79936914,13.28891895,14.1194678,13.33823865,13.73024179,13.1593417,13.74633595,13.51119426,12.79306016,13.53732538,14.45529694,13.3611507,14.71831846,14.98736123,14.38661119,13.9105301,13.38583803,13.17084628,14.34211002,13.60314542,13.57852171,14.19895153,12.9005866,14.6998698,13.27585246,12.79057407,13.68528359,13.84200693,14.90722424,14.250402,13.36627258,13.60364151,13.70958303,13.61421103,12.97631595,13.60244091,17.01722378,13.45082154,13.40896041,13.54217859,13.67083004,13.31877326,13.63649815,14.21833607,14.41133674,14.42589024,16.00943732,13.24876257,13.44579463,14.26127876,13.0482207,12.97790944,13.22274513,15.01684654,13.06197457,12.85529187,13.59981258,13.35533639,12.62400806,13.39226546,13.30059181,13.54874062,14.06830858,13.32538594,13.15801217,12.90606668,13.7707514,13.55032676,12.82117582,12.82626298,14.83672535,13.83832384,12.97897867,12.76175165,13.46000953,13.71517656,13.36763642,12.89904991,13.10455333,13.59680459,13.54921299,12.92481285,13.58129199,17.83671342,14.06814806,13.48607701,13.16382008,13.07104422,13.27462447,12.96963758,13.53938652,13.35711931,13.32665717,13.67788106,14.01240023,13.63869004,13.15965601,13.59342665,13.14789913,14.14151424,13.20829458,13.70736657,14.06018772,13.08096674,13.49012439,13.07462639,13.6338904,13.41975011,12.9444705,12.93959922,12.83652098,13.16627028,13.07178933,13.55639404,12.99904253,12.83462306,13.15610323,12.79480703,12.73096913,13.24547934,13.11275426,12.93304595,12.8748094,12.94074428,12.87083518,12.81094116
419,0.254010001,0.276008306,0.259962248,0.274796679,0.438870735,0.354475046,0.281779678,0.389471229,0.316424754,0.327658423,0.268958762,0.319554865,0.276655856,0.295257885,0.287315987,0.317951388,0.293213429,0.316096368,0.298743925,0.306667255,0.303770032,0.310639212,0.305794551,0.31208327,0.360894123,0.349156884,0.333523887,0.293333772,0.303233133,0.293505354,0.332483306,0.316840578,0.336418786,0.313303333,0.33941998,0.328760996,0.326947696,0.306476492,0.330831084,0.298436402,0.315282023,0.280994121,0.291212669,0.312292931,0.303176861,0.291119953,0.283325704,0.296743034,0.301342012,0.310561235,0.320403147,0.35013976,0.32943182,0.319166213,0.314996064,0.339123532,0.323204839,0.378692398,0.540463093,0.473082677,0.426867375,0.44537035,0.464913821,0.527861811,0.443230072,0.060283629,0.069078737,0.140438282,0.117329953,0.124573733,0.130090782,0.107623108,0.108022714,0.104004341,0.127457855,0.164337173,0.182379277,0.168468711,0.17236954,0.169123978,0.236724877,0.255021916,0.25285175,0.296842649,0.349779119,0.303383058,0.335569188,0.29374835,0.276737073,0.236681287,0.241165766,0.320032276,0.368777526,0.332402567,0.29812514,0.106119209,0.080274318,0.12018397,0.11166852,0.161072777,0.205557506,0.16517433,0.163203278,0.139741165,0.183952245,0.208070832,0.059988209,0.11123338,0.150308726,0.168163334,0.205509329,0.209475485,0.169588308,0.159792389,0.152354735,0.170350908,0.350321241,0.07844329,0.114984862,0.220601589,0.199559204,0.207839032,0.178732415,0.153072513,0.221220877,0.233172861,0.07272225,0.100082314,0.182339934,0.171797574,0.2219852,0.270259817,0.219435973,0.223294084,0.265234349,0.23577868,0.208877286,0.253231921,0.306685088,0.343088417,0.354680092,0.272345225,0.103183271,0.095329958,0.143144388,0.15095223,0.179789761,0.228636735,0.201821805,0.202986065,0.230965631,0.265335663,0.237715697,0.259942722,0.270405824,0.298027042,0.283067431,0.280538352,0.200783405,0.242214132,0.247729277,0.233385185,0.302742908,0.275594913,0.24811802,0.343618149,0.289215751,0.226843201,0.220785678,0.31040714,0.279940492,0.244587015,0.219785895,0.209733797,0.288648244,0.318027984,0.24346726,0.271751145,0.317011734,0.263936493,13.80468369,17.92557196,14.11813873,13.48879631,13.79408594,13.22715133,14.15307607,13.09059277,13.44041209,13.70284259,14.53441928,13.22874983,13.37975506,15.23686347,14.55251923,13.95632782,13.35097452,14.6193072,13.9969179,15.95822053,14.26528423,14.14833797,13.59839378,13.29321969,13.28518861,13.81026788,12.91004033,13.19918009,12.9295478,12.92080322,13.12500799,12.80406485,12.8100731,13.26460945,13.26287446,13.81488482,13.93671113,18.19130671,15.52710147,15.19347843,20.34349163,15.97542944,17.07268449,16.84625268,18.27639301,18.62037011,18.84667798,14.98295335,16.12112452,15.89901199,15.6826626,14.42537187,13.80885112,13.45400761,14.23398306,13.44639793,13.88585937,18.23669212,14.98737302,13.58204824,13.49257507,13.17431815,13.69651058,13.73298081,18.30608674,36.36999912,39.12106411,31.44110492,29.23697062,39.70418324,24.34341243,28.25878091,29.14783013,39.66811052,37.81102691,25.46100419,26.21477427,24.07306112,23.74969982,26.78574649,17.9385852,22.21747221,29.07222568,19.80279766,19.05849788,19.00214916,16.61045258,21.68759846,20.41104591,23.79976745,27.68547707,23.43914165,19.98651692,22.90879067,20.88713467,35.26895131,37.18406606,22.59892629,22.39689857,24.39140757,23.52865106,22.31903317,22.06506475,21.35966576,20.38214606,17.43161109,33.57019381,21.05829712,23.60219263,23.11062436,21.63195472,22.28635626,24.42519529,23.25794932,21.74814724,20.82442595,22.4336264,34.12423107,33.48434516,21.77286402,22.78755072,25.61005372,19.25847623,20.26099189,19.57610338,19.36569631,29.91501145,28.59084126,24.25273952,22.19512913,20.97794891,19.10149278,19.38370039,20.74449278,21.73805884,19.38884873,21.37719393,18.90357428,21.79978055,20.67528419,16.96284109,18.8012194,23.40265143,22.87373184,25.47160316,21.42116898,22.59910039,19.10413841,21.16871858,21.38030907,21.53086573,18.27631064,19.31971771,21.20772668,19.70726396,18.49271294,18.52908976,18.47122606,19.63029193,20.11009968,19.37663507,18.64141541,17.99798686,18.12498344,18.45605929,17.62899977,18.34844878,21.34726408,20.1685422,16.83103342,19.71781439,21.50124641,19.63870941,19.26801029,19.12876314,16.40183902,20.29141833,21.66745338,16.63773075,20.09508936
420,0.150998188,0.099708007,0.107283175,0.114629091,0.139675811,0.122162063,0.257107003,0.237564891,0.273905644,0.160178285,0.176015886,0.187572326,0.235759159,0.237548061,0.204802613,0.19698572,0.112086062,0.349754611,0.079857916,0.022376087,0.076647705,0.042387959,0.08636227,0.117572707,0.089544389,0.163911847,0.237996749,0.396536276,0.291533801,0.195779607,0.275241845,0.205212433,0.088193231,0.127299952,0.172777028,0.143158015,0.153025085,0.215809453,0.247937886,0.227682898,0.245317618,0.222760657,0.237582935,0.23449447,0.247183948,0.19545572,0.161780487,0.106481608,0.150668086,0.071521436,0.055742287,0.107546162,0.054403942,0.046199646,0.099182425,0.080868055,0.112329887,0.155913768,0.242089968,0.241061993,0.164548259,0.187701706,0.203856189,0.093167857,0.127042811,0.171222478,0.142272094,0.177186906,0.240722585,0.243691595,0.245340461,0.271530752,0.218123467,0.261598446,0.251343858,0.248052328,0.202647246,0.158684525,0.101540584,0.144737231,0.082098762,0.050714673,0.090236714,0.055287824,0.048363747,0.087278297,0.075842785,0.095007765,0.156019475,0.222342293,0.105557681,0.176245416,0.248965981,0.233148726,0.108927988,0.130138803,0.182054451,0.209357607,0.246213531,0.238018421,0.242168308,0.246093959,0.241959583,0.236893469,0.226733441,0.217872137,0.235708077,0.236244567,0.154536902,0.099360545,0.139163831,0.08057835,0.053347349,0.092965009,0.058888027,0.046846491,0.091530047,0.082036807,0.094874095,0.142687224,0.225259035,0.226998521,0.19172219,0.23256691,0.177312996,0.096111224,0.130911685,0.193166369,0.149257447,0.181671709,0.220543879,0.250854427,0.240208422,0.239866426,0.213056264,0.212862275,0.252518927,0.219424611,0.201539909,0.124964945,0.108954057,0.171325327,0.111282244,0.089201671,0.149560128,0.096132943,0.070032494,0.471781112,0.22070382,0.364311017,0.347373241,0.302249564,0.280093313,0.303474849,0.258254122,0.271408451,0.392966287,0.311052178,0.332889031,0.408527221,0.402943231,0.101192547,0.390387754,0.409883811,0.370579896,0.404053546,0.445098813,0.334111136,0.29114147,0.274760002,0.304926376,0.328220544,0.235923267,0.099626345,0.044874905,0.057174896,0.08230199,0.066255303,0.204937932,0.114089236,53.84671599,70.59779277,79.1054749,35.30581953,47.80005007,47.25437953,24.17834234,36.40504662,38.20729054,33.24646544,40.8059338,32.56977955,19.17496993,20.54934024,18.32443132,69.22917717,71.80028206,113.3194558,134.1441904,128.2763786,145.712817,126.8831575,131.3664486,137.8642129,108.4706767,116.753045,32.24998055,33.60223417,18.35187032,34.08621282,29.61062624,50.37948764,81.35102355,58.27225917,50.70712516,61.83370046,46.12504204,18.42869311,21.43492458,19.55124156,19.04633506,24.76057391,25.95396315,19.14162682,17.05094028,21.33079814,49.16035035,109.9280674,108.9383883,130.4039596,141.3816429,119.8986627,121.9117965,113.9077432,125.0618221,130.0074185,105.3741801,38.23627097,18.16376252,21.34470488,34.58065349,40.87520389,43.37387632,68.11249465,61.88444586,44.89527839,53.32843855,43.54888403,16.57305643,22.95440093,28.21934564,31.88512882,33.368932,35.51641039,28.51685895,21.67736061,27.19118009,76.60198181,104.7157522,116.5502676,126.9630574,132.4680155,129.5909769,114.1329888,112.9858242,132.8641037,113.7013711,114.0167475,31.18426917,25.46931563,31.84932144,29.38980187,42.77240101,47.54421133,50.89508185,54.78187712,39.13604917,48.81927277,47.74291152,16.35223929,29.12223761,23.79989421,31.40029191,26.47212036,21.90973712,22.62113603,20.15669103,21.32810144,62.40490322,101.4459416,119.0604574,113.9211247,132.9955766,119.5105691,113.0903066,110.7581247,126.9994984,114.1381472,112.2276118,44.42940337,19.29457922,19.65773764,27.36184372,41.46370115,42.49373384,75.58046936,60.48260274,37.70632446,41.66605545,42.07968798,16.88004026,31.59453301,29.65429894,21.19218642,24.9181496,32.71010327,29.09549275,30.27129627,23.18428359,84.69798764,80.31703272,136.5190575,110.0133144,72.3720872,122.6625167,100.2059862,104.3962481,90.53701556,42.30940663,17.33533177,15.08219593,12.75087265,12.66070339,12.81377194,12.79223292,12.83089006,14.00891316,13.31023242,13.2902835,15.8516665,13.86791546,52.01348477,20.09600196,18.36124536,21.82707032,14.96643976,14.60594125,26.19657195,27.11147948,26.19397722,24.23857243,19.69652809,59.77977296,114.8328572,140.408371,127.6602744,104.6417245,110.868889,116.848115,114.6012305
421,0.352348897,0.268559659,0.334527529,0.291903902,0.248010782,0.278760888,0.219718121,0.230362822,0.242230336,0.291055903,0.249038081,0.241850852,0.266618147,0.238256281,0.110136146,0.09673639,0.340075451,0.576120875,0.608436457,0.488385433,0.43712834,0.296082448,0.49270252,0.299041876,0.328326631,0.306355848,0.333313678,0.263830595,0.411803417,0.207857448,0.314957747,0.245405698,0.171102806,0.245759054,0.29895837,0.209224548,0.48508054,0.40798234,0.256200437,0.133838442,0.274795511,0.231953051,0.2520079,0.272463599,0.313779076,0.26920527,0.261277404,0.282160818,0.26878245,0.359313579,0.212611446,0.243756729,0.208026839,0.201316109,0.185933557,0.216917731,0.217945634,0.198038991,0.209827973,0.212659732,0.222238372,0.233460546,0.215350911,0.254232736,0.327100441,0.277713255,0.200927105,0.272862663,0.323384646,0.357759788,0.304813658,0.278248069,0.369970562,0.511811014,0.423865351,0.322328371,0.271378398,0.287106007,0.349743717,0.471990321,0.479625697,0.376554296,0.610165161,0.299651478,0.397789444,0.414452068,0.480490657,0.548228057,0.632934883,0.542816251,0.398190202,0.52417598,0.309067228,0.419958636,0.432581915,0.601669912,0.328769535,0.385403823,0.434946424,0.379225647,0.356138155,0.392626256,0.364843128,0.326182785,0.365416192,0.288146717,0.306207744,0.496245842,0.334492765,0.457856681,0.34681153,0.331851339,0.354261255,0.303283752,0.487390135,0.475838574,0.475039805,0.382309541,0.338931513,0.432226874,0.431908808,0.376359407,0.359094236,0.333563491,0.422368137,0.297217761,0.122718338,0.443503556,0.290499354,0.334766088,0.439487887,0.364215989,0.494618097,0.373468822,0.344023695,0.326704813,0.19412719,0.252823727,0.427334871,0.53049645,0.31834165,0.358275058,0.360067464,0.31622514,0.397200386,0.129794124,0.221698686,0.1651984,0.121776644,0.147111099,0.159187501,0.179936833,0.276872098,0.267386188,0.26215376,0.26265349,0.259106744,0.259496112,0.272027984,0.282069415,0.246458433,0.284036271,0.291288504,0.252479579,0.287072337,0.27710906,0.268076973,0.25421296,0.242863632,0.248211322,0.207692187,0.191321412,0.199925831,0.202884579,0.212439339,0.19692697,0.175707405,0.160642582,0.164852198,0.165312611,21.13565475,32.55089551,27.73351417,17.32161226,23.03727106,17.98860611,18.81669526,18.75739697,15.62788693,15.80156164,16.95045653,18.07853114,21.49553951,18.96899997,19.64358451,21.99259199,21.27182739,19.17375101,20.18762213,15.64539937,21.31638453,24.37869569,17.77315281,18.73671381,22.57703571,19.472393,18.13282088,20.22782624,23.74589757,31.06015522,18.40557362,23.76497434,25.57457894,23.16623439,19.02442023,20.80990463,18.32624307,25.16104773,21.65113039,21.13208953,24.34756409,19.30848843,25.1565096,24.10495133,21.0807665,18.63292734,20.16291368,17.67044961,20.17629704,18.34920078,24.95804646,24.03980076,17.99304195,18.48037988,22.19583522,18.31247466,19.89507704,17.6358387,16.37820307,16.87953413,18.23216472,17.71699539,17.4787043,17.21402883,20.4136615,25.42724004,27.45688628,21.07700064,20.81128417,18.62413666,17.92038584,17.32498912,26.43819305,22.71831815,21.87882803,21.24435479,23.7026058,23.12702354,21.62203236,21.10487277,20.34673088,23.26332322,21.74116954,24.9639683,21.14740082,16.72276786,23.42747559,18.62483718,19.30562116,16.47330302,18.59231071,22.76060512,23.79092262,21.22930161,32.82421212,24.38812978,24.506552,18.91171044,16.96537678,16.69594119,18.17832355,19.99508955,24.57032762,24.84765844,18.6164217,23.60172568,23.22985857,21.3944194,18.9389559,21.38720512,19.91978048,21.66600295,15.1724175,22.14602829,15.19803329,15.10345598,18.76023428,24.72548335,21.38065163,15.42972478,16.45163533,18.05998015,16.88173545,19.33352309,16.31431032,17.48795967,31.12752127,18.75195942,19.0109498,25.86481939,16.54108572,20.50750306,20.53957688,14.9268553,26.32337883,19.09247825,21.28351097,21.16648593,16.56301683,20.55186953,18.34262153,16.1319174,20.37539288,16.08904332,26.55301181,48.03007277,55.97065896,32.32055059,31.00477072,47.88977282,34.78089466,30.63959467,20.00086346,20.86849884,19.72618905,19.36231408,20.94103596,17.66852213,18.85650668,20.77528452,23.39536437,18.84722567,19.91119957,19.02962792,22.78207502,17.17026685,21.83874693,17.09734462,20.90522298,19.8363108,21.65172042,19.42658489,17.93574174,18.05928692,20.282885,21.6153875,19.566531,18.25603837,21.9356449,16.34032637
422,0.151683244,0.165454237,0.173016551,0.163474757,0.147807634,0.175724439,0.155559329,0.145783487,0.14245531,0.142824783,0.167554959,0.225238761,0.216412489,0.111222875,0.190747527,0.254426064,0.26581353,0.18819823,0.18913952,0.206443178,0.192187164,0.198924143,0.180146815,0.192988049,0.19714368,0.2152743,0.205419897,0.17688123,0.198598693,0.145175229,0.172867106,0.191305239,0.162851565,0.161537031,0.17870562,0.253633081,0.268959358,0.174077117,0.198144555,0.179903358,0.140705139,0.195015434,0.207720484,0.210936366,0.19512384,0.193061349,0.211461468,0.219176712,0.176620537,0.19239378,0.372506278,0.273701464,0.191477976,0.187613668,0.181281751,0.178208385,0.193137281,0.174723568,0.17980024,0.179530998,0.18983846,0.19390448,0.178844752,0.188253153,0.181006757,0.197592551,0.189023586,0.185409683,0.180426027,0.188280914,0.197343658,0.186562896,0.191479436,0.18785934,0.193416096,0.187589166,0.183051235,0.300740271,0.189890621,0.199276887,0.144123394,0.150535711,0.133840583,0.292760023,0.288775394,0.18114223,0.183885747,0.288151006,0.191681305,0.188857964,0.176599256,0.163971677,0.441285238,0.354211897,0.289114888,0.372513473,0.389070853,0.310335447,0.209844541,0.271834851,0.269110305,0.269248521,0.198443328,0.192965395,0.22096713,0.18694113,0.177365516,0.180987375,0.196652689,0.204870796,0.184182757,0.194023653,0.202145096,0.179051714,0.189109696,0.189966272,0.192671278,0.18505537,0.174429643,0.190917828,0.181187389,0.185147478,0.180610482,0.181234045,0.187501102,0.310974314,0.329518801,0.390713225,0.160266043,0.279919947,0.231966133,0.304068577,0.299673049,0.415631111,0.426264106,0.24107215,0.333388871,0.379351252,0.465215395,0.57167535,0.599290307,0.599595424,0.593824925,0.577297134,0.575262755,0.569909579,0.561064272,0.567931518,0.573829225,0.561593351,0.555606085,0.552267161,0.564730781,0.55965041,0.560438987,0.578855025,0.555157461,0.549928418,0.594096261,0.591710254,0.592236296,0.594314544,0.538115095,0.555702811,0.551498841,0.588328474,0.594543802,0.528350953,0.582989034,0.580055006,0.595349278,0.59982674,0.562634199,0.589691516,0.593455883,0.598808941,0.588937887,0.550221062,0.558495624,0.578136953,16.78657871,18.17127818,17.76503977,16.44245017,18.42046972,23.09785184,16.41965846,19.44034829,15.25069764,16.14190335,25.98281435,21.89123145,19.6824886,22.18818214,24.50062531,19.10742803,20.28652685,19.8527791,24.75489801,16.38402654,15.15586439,14.9706765,25.74395278,16.79973326,16.10327059,18.5511908,17.40662552,17.53363401,25.79285226,36.59918843,20.53309396,16.14893052,23.60006152,20.07208511,19.64910986,19.74088796,22.92229263,20.57904146,26.71790256,17.47024535,20.13560391,21.8698981,16.31468179,17.48900485,17.15367401,22.23999577,18.4396198,19.30241385,16.65212105,23.26385674,21.45665063,16.67736977,15.32818646,14.93875868,15.92767256,14.81569836,18.19410792,19.52561754,16.76744931,19.47887307,17.03092575,19.06750206,17.54797348,20.39919099,17.93831838,17.10446239,22.59034549,16.83885667,17.89197803,18.50227303,15.84266211,19.61148985,18.12537608,16.82358031,17.78966274,17.01668361,19.56405068,16.7737568,18.48496693,18.99777005,23.96143134,28.89408773,27.23076477,24.45743624,21.63913642,28.34105664,34.86054087,17.79626902,17.12581672,17.69999158,15.83842475,21.0429812,22.38658604,21.6998025,28.24608295,21.80723391,18.55831311,19.41440363,22.63828903,19.28403816,20.7339584,19.86799383,15.68708201,18.44818457,18.19247096,18.47939545,20.25717849,17.85271343,21.23961209,20.39011464,17.94548403,16.87742126,20.41900247,18.10460773,16.476944,16.28961655,17.20206254,16.26812021,16.97661669,19.03149349,16.28523599,16.57151031,16.18112918,20.24976966,19.85824891,29.29587501,19.4196199,19.56175643,37.97428902,30.26921828,21.35013093,32.13098476,23.66688229,17.50948529,15.58046835,50.40081788,14.77857558,15.90060646,14.05985155,16.95569478,14.04017885,13.70783042,13.35187565,13.13182052,13.55471338,15.29897559,12.88011864,13.94448292,14.28034431,15.13168792,14.82370671,13.80401841,14.70940726,14.80421479,14.33224467,16.39362609,14.02790806,14.1227973,14.8584166,15.42227844,15.45729222,14.42026994,16.13322052,14.35303686,17.51915216,16.06400731,20.11381585,18.3801175,20.27736444,19.30515378,18.97596752,18.5859673,17.44583688,19.03301366,20.37932427,19.87229444,23.87085417,24.18117184,21.97451319,23.31696526
423,0.33313499,0.320290654,0.326789548,0.34013505,0.345329495,0.337420312,0.34565433,0.323157845,0.359770075,0.350443655,0.332176325,0.315801326,0.320794104,0.283684166,0.378347341,0.358420418,0.338446214,0.329215549,0.227929768,0.054566728,0.370967218,0.346464773,0.25261575,0.382628055,0.34956218,0.378943404,0.334147462,0.355690031,0.36189703,0.341653852,0.367260835,0.353430157,0.333983679,0.353532915,0.323044821,0.323076423,0.338587216,0.344673904,0.354173026,0.318519912,0.343209419,0.357545423,0.278908409,0.355271765,0.260726262,0.076776175,0.176333268,0.292943979,0.248564937,0.337263155,0.356032533,0.330657042,0.313292274,0.319631649,0.318464183,0.29795215,0.308588138,0.288089264,0.29618643,0.314861557,0.309716061,0.304142567,0.282550126,0.28426221,0.303920228,0.299729737,0.285840341,0.312730245,0.278020162,0.305423177,0.29787705,0.282134186,0.279893197,0.28482526,0.26137991,0.296521111,0.293695308,0.292272562,0.274555076,0.298108152,0.297474255,0.293045527,0.273307703,0.294371438,0.302046317,0.291420595,0.274449923,0.287880278,0.289296082,0.242355664,0.647028181,0.473237179,0.567564317,0.619609206,0.63558589,0.636042207,0.655115494,0.683974878,0.661364457,0.623987019,0.615440797,0.598415745,0.620999925,0.616900529,0.597331066,0.653513272,0.205382741,0.629413798,0.609615642,0.56402381,0.623406636,0.560114473,0.450905502,0.600092394,0.395422042,0.62724912,0.507547503,0.498059168,0.647245433,0.492821521,0.636511753,0.427497736,0.647615037,0.35815284,0.562092541,0.560890571,0.568271909,0.599026321,0.526532071,0.475259543,0.563453204,0.594744606,0.444740124,0.533388855,0.593083424,0.090861848,0.096531631,0.147662137,0.119778808,0.149814193,0.298074331,0.279881531,0.259804546,0.294881645,0.250511259,0.418534382,0.420259961,0.438476104,0.448819925,0.386769761,0.425017847,0.441987327,0.344625107,0.379984681,0.367099423,0.092850488,0.379392923,0.32361293,0.267008027,0.316302281,0.176323548,0.425606098,0.446933087,0.430589048,0.227682689,0.257483336,0.330080123,0.168675957,0.368114432,0.384261086,0.492626156,0.35255939,0.560134264,0.374105625,0.1256481,0.077150054,0.287896571,0.267418175,0.193206038,0.246801038,16.36955043,16.956741,15.91124349,16.01379207,18.23451565,19.30593505,18.11395119,18.6658765,20.1617541,17.14451516,15.84794992,15.17460545,15.79837335,24.86846993,22.84662641,18.65321573,19.24522609,17.30539517,20.21012272,40.63261027,22.74362043,24.1275101,30.15659207,20.2387484,20.80066649,20.84610584,26.57694618,22.83741124,25.25536088,21.28541294,20.61093135,20.70007363,19.13162113,16.32185703,18.32793794,21.73033391,24.14653859,18.60584614,16.53904214,18.50571385,18.83063497,21.11804089,21.39529688,20.69153759,20.06444312,55.16876455,33.47383622,16.2457726,26.32247922,16.36516234,16.95436511,15.66339012,16.94611598,17.71014515,18.44552653,16.62518021,17.17415066,16.84216705,18.16705109,17.92144788,17.36550943,16.89522783,21.21376956,22.12748698,18.10281082,17.27705228,18.21663851,19.22190252,16.94477929,19.28125804,18.80218412,20.25657294,18.49409389,16.66621969,17.55662363,17.30109524,17.89805228,18.16302161,16.08370027,18.03381692,16.90983334,16.13079074,14.93894313,18.16036752,17.77544851,16.38144989,16.21992718,19.11017627,17.78488326,22.11130691,20.0649643,34.42854155,18.61230482,16.96951356,21.80230141,22.26002118,16.80456808,19.06233878,20.6285298,17.07791204,20.39367008,17.01461922,19.59770655,21.73071129,20.75084729,23.19808986,47.57369744,18.5461028,21.39065988,22.67838434,22.28896414,21.88109464,30.61781762,24.00194748,33.45045422,18.90120982,19.17347487,30.2421177,19.45217449,30.93081925,19.46241606,32.86051383,19.27027372,30.11128543,24.33573043,20.1105185,21.70075435,28.79729224,23.47272585,26.71635224,18.03590088,17.95563659,26.22076229,21.82172807,17.64686908,29.4607726,35.09308452,24.82277202,77.18417,27.70461759,17.69805707,19.28617034,25.08379281,20.98873533,29.73721529,25.80347608,17.9904084,18.56683132,16.50728818,20.5508127,20.48906907,17.21451263,19.42563292,18.79954013,21.7789373,23.27431208,33.02351482,25.79499841,25.26204323,23.07868548,22.50605774,21.98857944,22.61665207,22.43044575,17.57392197,18.61764301,17.31281925,20.30454181,20.27870091,21.69902951,21.97013315,22.69610011,23.17495471,20.11426895,26.17294668,50.42927519,28.36099729,16.35296664,26.55567914,33.68800989
424,0.479874097,0.422732309,0.42722671,0.391032012,0.218106969,0.427776179,0.489727015,0.461819949,0.577947308,0.538158459,0.657441901,0.49978308,0.653989262,0.535969835,0.577068615,0.646094031,0.655168448,0.53642179,0.329118305,0.315691487,0.096673876,0.268254091,0.042412311,0.023764668,0.131162402,0.027818234,0.034734841,0.107877082,0.048286538,0.196233881,0.235793848,0.323331973,0.339327609,0.284776003,0.560175229,0.475052615,0.235394723,0.252594674,0.367135082,0.370096234,0.240934445,0.249774243,0.328638872,0.410288307,0.533641803,0.456676947,0.521318001,0.55530366,0.30958072,0.50204617,0.299853939,0.283682716,0.102803623,0.212630443,0.051475518,0.026332598,0.160406874,0.030517211,0.038462415,0.091745051,0.038423577,0.138290338,0.277609119,0.683477422,0.282675944,0.389274344,0.432622432,0.468230516,0.273325661,0.300365132,0.326433256,0.250915451,0.262806306,0.341488066,0.62346842,0.351205121,0.319894411,0.409831021,0.464806709,0.409814423,0.449002827,0.449393778,0.339456491,0.310301179,0.084812079,0.234430592,0.027627025,0.018394555,0.106909388,0.019932776,0.028283696,0.068862196,0.03788908,0.149431103,0.271221445,0.850030202,0.838679189,0.345255083,0.358443109,0.539720978,0.259173379,0.388098869,0.416442428,0.451570843,0.509944896,0.43508765,0.369999859,0.443468787,0.423764067,0.428098128,0.749193602,0.536400567,0.441625628,0.41738819,0.271972738,0.238964964,0.115436042,0.270774083,0.065027548,0.030842545,0.182319556,0.025648625,0.025922575,0.125764633,0.062304681,0.2117707,0.506763615,0.628370764,0.554361472,0.58322306,0.56801457,0.528563855,0.52776959,0.551217936,0.578186032,0.558865964,0.050843983,0.107013065,0.21145249,0.196195894,0.147357986,0.187957103,0.217343801,0.236524236,0.349728106,0.382722554,0.310947192,0.446161924,0.241327625,0.424602396,0.127873256,0.060035185,0.352350253,0.043293148,0.034866663,0.174958513,0.073455104,0.188684241,0.071990005,0.20177747,0.260793761,0.249609105,0.285766134,0.286158684,0.34470268,0.526881237,0.514724241,0.497829362,0.535301114,0.518675438,0.615775655,0.579783255,0.432702164,0.310799209,0.240578482,0.417021769,0.557680668,0.4137488,0.41218528,0.297622777,30.37133258,30.8861556,37.2261847,30.61053011,77.48813397,41.58888513,50.19415009,47.18642805,62.5023462,25.59239028,31.58072597,34.36834672,30.23116443,30.15467958,42.64228977,31.188741,31.84273901,25.05545254,51.56511817,91.69342612,128.6882273,111.3434397,134.5424336,126.2134721,125.0320048,134.4662619,122.1427541,121.4403631,141.6777645,138.506592,53.01142373,40.25147348,28.81601462,36.81010457,28.33720437,41.4642269,41.2930906,59.52718586,32.02388782,35.98767254,44.80097193,37.32680417,30.08780552,29.43859514,30.86794479,25.42851763,72.20029808,31.34563129,41.07868008,32.66207574,48.45586186,103.9100172,106.1865867,127.7389077,124.5471555,123.5723566,138.6413403,137.3490477,118.1949526,123.0211712,130.8221212,138.2850146,39.87191707,26.06283225,30.17510066,34.51572198,38.69402518,41.11143289,66.05218219,33.49506889,38.69511746,31.55868648,70.10556023,37.24691316,33.45440204,36.82487511,46.7746648,37.09438847,28.62707138,31.53955671,26.93611436,24.64164022,37.33833688,96.45994714,118.3543021,99.60906862,133.3610148,125.7801146,133.2996891,131.384778,118.8225917,134.2907283,127.4288268,131.957772,63.3521135,23.86594981,23.0434418,34.70283458,34.78993486,37.04941981,75.33872239,26.35508745,27.4764196,26.59420859,47.6774075,28.78249538,20.21091974,28.37807386,29.68428836,35.3364669,38.43617639,34.87723053,28.60890622,38.28899529,40.21391131,132.2680599,111.1679253,98.23211641,129.6972904,121.575671,138.75571,142.5352218,120.018486,119.014628,123.011301,139.179387,17.35897277,13.9000792,13.33108046,16.86759896,15.54388497,19.22751534,20.28292316,21.29050212,16.86331708,17.10010581,37.92706021,101.6990591,32.41986894,25.53450401,25.31037657,25.72703328,28.24742962,26.9493448,24.72520961,27.80626386,22.67770192,43.02223285,44.46680454,67.47239727,136.1887464,110.3621838,125.0591952,111.1008122,124.6196281,108.5795352,95.94318756,75.82551535,36.65083604,22.04768795,15.78146069,23.00121687,20.08410622,29.25698463,27.51497502,19.94218154,22.25471692,21.18144741,24.75612764,17.0396458,20.91869681,25.83698835,23.48732185,23.83238962,40.50087213,30.04238677,29.57995789,24.3973369,23.72101708,62.58267085
425,0.460708097,0.341980092,0.459560298,0.274002708,0.065298062,0.087504012,0.2766656,0.104164732,0.104559582,0.176658738,0.283030475,0.30425253,0.274161213,0.133005069,0.289456586,0.177175624,0.063199421,0.33963448,0.2644614,0.126480004,0.305065388,0.219034281,0.517280031,0.212636577,0.199778323,0.553851042,0.087739736,0.050451196,0.182673468,0.145293733,0.073577748,0.25055493,0.445736504,0.575992916,0.659134868,0.453789261,0.515851352,0.410019656,0.105779082,0.132126903,0.119438903,0.348301788,0.188479551,0.124224097,0.294207834,0.238298497,0.172007688,0.258032028,0.255942869,0.059646993,0.097258971,0.261138408,0.216112213,0.264615572,0.189025558,0.314421596,0.481038107,0.348278249,0.136998181,0.287483693,0.138478751,0.061936679,0.134865652,0.12674643,0.082530661,0.136977538,0.153851939,0.299368559,0.133673701,0.105415904,0.298199174,0.045375961,0.035473319,0.133492213,0.150930292,0.065649963,0.226302212,0.531232102,0.598344293,0.503108898,0.329759411,0.384563083,0.371439326,0.142591781,0.123129417,0.084414029,0.199729472,0.13475764,0.133336114,0.629910467,0.473436921,0.442761786,0.27901775,0.456439293,0.310306631,0.291513133,0.548449774,0.413015104,0.363176515,0.524883196,0.605527461,0.672905441,0.513390997,0.345568426,0.4033918,0.319225541,0.156279192,0.296488412,0.311356474,0.213346714,0.263315087,0.255471662,0.223276161,0.261583415,0.259596816,0.423557436,0.128102666,0.065194069,0.241719254,0.201868098,0.114021519,0.292577383,0.684062161,0.615257141,0.64777581,0.538460173,0.491122737,0.394770337,0.165009271,0.1367072,0.113252206,0.278768416,0.273591573,0.33204496,0.571819306,0.445732913,0.472092785,0.600257743,0.448081996,0.09945899,0.14389937,0.432587613,0.266035551,0.187110896,0.250614916,0.408724747,0.247044106,0.286362722,0.286618878,0.291311892,0.217947623,0.112345543,0.223992174,0.169857195,0.170461416,0.20748913,0.180511261,0.217085487,0.17422968,0.136427848,0.224329702,0.078502523,0.037017895,0.094505333,0.174579848,0.077221292,0.182566872,0.247529956,0.377342642,0.241490771,0.24021634,0.409499723,0.437833828,0.231833396,0.138976115,0.173940657,0.462910381,0.151451442,0.183871271,0.256234751,26.43089951,51.36988359,32.34020862,18.64928266,130.7688746,127.6183944,28.3074617,99.57915689,111.0580509,31.09065785,18.4850991,19.53026499,19.59119246,42.31979031,48.30053065,25.56804371,117.8092438,67.06570866,48.48335476,82.05673522,75.96687679,40.97816864,24.22805451,41.020515,59.14311602,28.04902562,93.75698043,125.652731,68.563182,57.24980238,149.8946126,46.6767093,19.95610738,22.82552758,25.5049955,24.10904158,49.36941839,33.12785359,106.7896636,141.6564134,78.70814354,23.33284441,84.67271754,78.98659982,19.25220707,20.50761747,53.0740643,24.38414487,18.631175,141.0474933,120.1582898,48.54188022,108.1827047,72.56248691,26.94919619,27.20935415,22.92246412,27.12284945,47.78775088,45.94957593,34.51423397,112.7766458,72.04531784,42.00590712,62.77234727,108.7619975,41.05253045,19.79024827,35.52417179,75.74454717,23.789311,99.17583292,128.5682526,83.3560012,71.23376934,132.595849,65.58601486,25.00858725,26.55701945,29.6118211,23.46800922,60.11173678,48.03941843,65.21018628,129.8806687,95.96831743,23.79106996,88.85778177,79.47195851,20.81003476,26.44034008,34.6219625,24.17598466,13.8433383,43.18782268,47.79062391,23.78515579,54.11439639,28.00675105,14.99648626,15.56990671,17.17606164,19.15107134,23.94280786,29.69255037,21.33814026,63.08839086,36.06502433,31.58426629,31.50921163,37.02540207,21.6543131,23.81295969,20.0472087,96.54409977,22.73218918,85.4393353,113.1655575,53.78076824,61.00126178,78.51261093,68.81157185,19.88803881,23.81016004,21.22563093,19.92237466,39.75537161,71.53259747,100.3825169,139.0310183,104.0832583,41.57598254,106.0526624,68.78630503,20.15402866,24.80142461,74.05945265,26.03427909,32.13487011,121.3912692,82.11979338,16.81295807,41.88950832,49.35833287,16.80981084,15.74995351,17.66778242,20.28095218,26.55006044,24.15119509,18.63327486,53.43255837,41.76007144,37.00229986,45.96933707,59.88474095,32.19844016,15.66570247,21.93228712,67.48678946,16.57741473,63.62488441,95.92214973,87.39959421,59.21485985,121.1207877,48.40934254,14.55752111,19.93098377,18.71871305,24.77981042,45.26026815,45.07950336,60.73211291,108.7562179,100.6919878,50.28681926,121.9195353,102.4740685,31.78331647
426,0.289740569,0.310472212,0.297005991,0.28861114,0.31145845,0.189632294,0.14541856,0.159422464,0.100264686,0.09267085,0.162286559,0.115087986,0.162187145,0.183250976,0.11923094,0.314406377,0.14118823,0.119582199,0.075514498,0.095914398,0.055338277,0.125298327,0.122956621,0.104276175,0.219777005,0.2907089,0.311491785,0.290937871,0.274856092,0.294145812,0.284972787,0.30357811,0.285928705,0.290059474,0.29844903,0.269214105,0.279698584,0.225787121,0.191072935,0.111226226,0.144773566,0.083549246,0.07995261,0.193945987,0.138757897,0.155932094,0.218735373,0.124470309,0.212446154,0.120275356,0.063269968,0.057816301,0.106458949,0.219603859,0.133399689,0.270826924,0.332415116,0.406461525,0.334528793,0.327505826,0.337153271,0.348688467,0.315039156,0.338728008,0.371243518,0.699692215,0.6589252,0.563751114,0.285510489,0.365112623,0.044839506,0.117949919,0.194198637,0.218047991,0.096814646,0.251076192,0.243192674,0.200429779,0.580944767,0.220349357,0.282708119,0.094006521,0.200537434,0.050817358,0.232094879,0.351149686,0.202289321,0.436114075,0.554102696,0.563559047,0.591264257,0.589289813,0.611246936,0.573264863,0.619998555,0.607319213,0.587398507,0.595035069,0.590978528,0.603251444,0.470024618,0.386838766,0.320827725,0.102808793,0.095651126,0.274520308,0.263372359,0.274494482,0.293843419,0.207806077,0.449762092,0.187240274,0.131749006,0.040436028,0.057566041,0.045844469,0.269112718,0.16274819,0.202099614,0.233525532,0.373210362,0.351049084,0.354751691,0.506101707,0.447649057,0.528180747,0.546868869,0.500244116,0.271620335,0.508939283,0.549410259,0.472225648,0.403208667,0.40130021,0.167616888,0.367793965,0.143120246,0.123575152,0.38610272,0.310474664,0.12982163,0.544553215,0.20826416,0.246690253,0.259515974,0.06017055,0.113044971,0.214636153,0.167772701,0.190436921,0.225571912,0.142528557,0.110269927,0.138746806,0.095656346,0.127065892,0.097148437,0.141276877,0.150719646,0.269142239,0.296669908,0.151021623,0.169970575,0.159750557,0.167502539,0.169999915,0.116837683,0.31690934,0.183478148,0.141490799,0.273061408,0.26534366,0.248178275,0.402821117,0.398750568,0.424090779,0.197820562,0.333755707,0.110803178,0.353092616,15.49156483,18.64234227,19.16354563,17.21096686,24.46496155,36.77611158,66.6190743,46.13148527,109.3746094,109.406872,66.82278702,125.0372202,152.6382488,71.46764868,58.55424133,36.01601829,88.30527084,48.91239838,120.4095328,110.9133058,131.0126357,139.0976585,122.8043088,59.00822298,31.15492512,25.72072101,24.739338,24.46680496,26.31491538,21.92719889,30.7060418,26.54077869,20.04464204,19.27195289,19.57844796,17.70026562,24.81318083,47.08450081,39.67304982,66.71062711,99.04288679,92.42395483,115.3059025,99.77926298,121.7828081,118.0571666,32.66856901,69.00486626,95.93917338,59.91699173,103.7711147,134.6623655,131.7981636,130.0251001,87.03996109,57.18431626,23.51765387,28.98448678,37.07792872,30.53920685,23.24733746,25.89921658,24.34475278,21.18727492,18.45443483,20.39272972,24.76974878,39.05907257,45.01063455,111.7032181,46.51560692,93.07896933,125.3356995,68.72165451,93.22304529,96.8741473,76.3422008,71.9844886,33.23076485,57.53071724,56.27995473,112.6925119,129.8107487,133.875473,97.60753957,113.7504232,53.43183361,26.95978904,18.71287642,21.44852588,17.61492014,25.04338662,14.97120926,16.81239459,19.71938323,16.48834096,16.2850377,18.53232723,18.98015007,18.97232995,25.49099058,38.86211272,40.53109485,118.7285541,130.5671963,72.92800301,83.72618671,107.3197771,59.52073234,50.0965808,42.27835076,57.42784575,59.3195509,145.3520082,129.7032138,119.0171093,104.1520038,71.7812908,45.16691374,39.77308381,26.86144321,26.3033979,41.79630514,38.33208188,24.87890764,26.60219431,23.51314759,22.23719916,21.87335413,25.44721207,23.29265842,22.79588924,37.26058669,24.06648306,65.72285739,114.3165715,81.45950155,97.78064319,64.17380123,96.87890119,48.79188476,22.57607685,63.35595753,65.70671077,36.38037422,75.80801267,29.25680078,23.4598367,19.53075228,40.2135045,22.23330658,25.05428683,42.44920675,38.0745012,42.2258271,32.0087753,31.74143417,29.10528004,38.76943961,29.34620842,27.36616745,35.60937961,35.08575622,29.9205668,33.0686973,27.44213716,50.36675686,64.09856871,60.29408423,56.33881009,70.38675296,76.74201608,50.38344357,24.31560341,16.14614982,16.76684788,28.16609801,97.81872574,72.653919,61.98368894
427,0.140783435,0.121278333,0.090661307,0.160494144,0.32161994,0.287803652,0.340111591,0.386103069,0.153523982,0.109952392,0.123354436,0.084546953,0.043855618,0.051330575,0.044838132,0.058088094,0.117080253,0.063720626,0.157000211,0.255335489,0.272397829,0.181674157,0.182730667,0.178877534,0.060177609,0.059026422,0.16336895,0.117481705,0.102126769,0.142363845,0.28832457,0.340819757,0.316801145,0.22597601,0.188433483,0.095544509,0.141029735,0.083144218,0.042541105,0.069333681,0.053872945,0.068659496,0.118268108,0.055481582,0.152630611,0.224591813,0.277904571,0.156735932,0.167642716,0.13016626,0.054651962,0.086326155,0.186219281,0.126378755,0.102041178,0.146080961,0.313091988,0.278387552,0.305490213,0.343327573,0.165196678,0.108435401,0.141788815,0.081451807,0.045205846,0.187122758,0.092726823,0.20349384,0.439652085,0.150779653,0.508648223,0.44890635,0.418239797,0.429396807,0.476243604,0.424010097,0.263760166,0.262228567,0.512778766,0.371629685,0.328288099,0.482214272,0.549918337,0.532057729,0.570697962,0.550221564,0.459098428,0.395511251,0.469509838,0.221362666,0.08048343,0.276834229,0.092908444,0.162465087,0.376242891,0.153061467,0.478238556,0.494930413,0.511830846,0.485460934,0.517257702,0.464617629,0.104487617,0.16546348,0.489067265,0.345728373,0.327533164,0.497948475,0.521427271,0.519563651,0.558492823,0.522690695,0.468540318,0.207782448,0.360881648,0.215670355,0.059787866,0.084828255,0.049747503,0.073119677,0.239555998,0.073931037,0.363452275,0.500293072,0.460982736,0.298825217,0.38426269,0.374136782,0.061847088,0.073215229,0.379929244,0.233161162,0.172709417,0.254458181,0.431179197,0.526223505,0.519147109,0.543252642,0.256662889,0.10085066,0.254783757,0.118219347,0.029382844,0.074764003,0.029404267,0.05183225,0.126442671,0.044534626,0.252043261,0.366226782,0.396879767,0.260807342,0.28931799,0.229011873,0.040608433,0.071298536,0.161543079,0.097396,0.080075117,0.122172319,0.136429685,0.167268789,0.143658606,0.174139384,0.116836218,0.064952352,0.112682741,0.064208092,0.019215463,0.039397883,0.02182737,0.027816174,0.084385128,0.034112284,0.122011074,0.165322398,0.170678458,0.143974146,0.134674266,0.16560851,67.31567655,107.0392415,118.3891866,39.72380058,23.39221506,15.78524762,18.20690432,20.72524096,48.51162648,62.90442742,110.8376526,76.79935405,133.7585846,121.913036,103.6685723,119.7836742,121.6665488,104.9517999,109.3060397,25.23244542,17.95416654,94.55886891,64.36676094,29.48175277,136.3854666,119.8934977,57.99896102,117.8551759,141.0683003,42.7607379,24.8733005,32.18248429,18.47485993,22.66954252,49.87306266,70.45716313,104.9792729,124.708838,142.3585796,120.7743002,99.76598491,118.4619355,113.5512854,155.4726491,99.87519347,19.18966944,16.11674843,83.96291864,70.97875352,21.80562337,141.8298911,117.6317712,65.952021,113.2240474,138.4654556,46.22181576,29.20098291,22.14250261,23.31041891,22.56517554,56.92784163,71.17606542,113.2626115,92.19304735,129.6713189,116.6388839,90.26169434,53.419692,102.6433716,80.53630233,22.40702502,13.20806927,13.25629946,45.44954253,45.10821228,17.11677091,50.9494328,60.9374727,19.93562353,53.5558752,50.52840009,17.2172545,14.48520203,14.37111919,15.40765964,14.13737961,14.83232053,21.21611158,41.24562406,64.12460833,85.28544858,105.906079,88.23517034,81.6658141,99.70124726,65.07322994,30.94171346,13.67506868,13.45640946,27.1264065,21.73544235,18.73707376,134.3466412,114.0712384,24.7494895,55.58188228,53.41126387,17.19763011,14.66490811,13.55046605,13.26905245,13.96460334,21.22729005,36.55237683,84.51931602,63.40179461,97.46093902,126.3284423,113.2402209,116.7532192,134.1081513,94.8030293,55.68239867,18.48224253,19.21113543,60.18377125,31.95836092,20.43731555,137.0973095,134.3857416,38.18147674,96.74074402,81.91117332,35.4780631,16.79330084,18.46219465,18.00551533,19.98732326,43.4463755,69.3248892,65.66480032,100.8920086,135.3267387,121.2870833,130.5675646,129.6799672,129.6991182,113.9196768,79.33321118,19.46364837,20.64448333,83.49413867,73.45015406,19.14290282,168.2874826,105.0407709,34.43240623,78.31937182,104.1000597,51.54667624,23.06056983,20.52358532,22.93620261,22.26472623,37.80629016,58.52975367,126.1557902,65.56262978,118.5862459,134.635355,117.3714173,107.9878068,105.1151249,100.5583717,79.03770056,24.53772845,26.81332382,97.47494557,64.79132919,36.86628008
428,0.285346153,0.058625019,0.144827159,0.127808362,0.047136179,0.135134108,0.132737477,0.159111337,0.179293907,0.335266262,0.339443905,0.296016489,0.368834121,0.296498056,0.303457101,0.255144227,0.249535963,0.215230406,0.201298222,0.176486789,0.134889007,0.160837985,0.07000922,0.293549133,0.1251878,0.116014245,0.212205342,0.097410443,0.206331588,0.110102536,0.056607798,0.144032324,0.194403584,0.140463857,0.1825581,0.214860737,0.301143185,0.210130164,0.268213603,0.330534305,0.265210698,0.282646624,0.348439268,0.335440075,0.193091187,0.254106103,0.208535929,0.138792187,0.131873086,0.11367447,0.230744022,0.149823718,0.196856841,0.200252955,0.072302306,0.102818941,0.066961393,0.049190406,0.217512906,0.120078742,0.243702113,0.236930958,0.3618387,0.364004787,0.313954202,0.232430062,0.344342304,0.335696694,0.30527604,0.243569652,0.212331148,0.325706085,0.187609365,0.145467194,0.233207292,0.068244279,0.211110232,0.098912978,0.132346105,0.310283925,0.059094436,0.158346842,0.131166568,0.046394684,0.152320675,0.116776411,0.141462736,0.184279845,0.243249702,0.353349617,0.297054628,0.313301304,0.300362606,0.366744426,0.33137894,0.265252105,0.272328827,0.239042641,0.173372181,0.144889952,0.150335227,0.105114964,0.256933499,0.130365519,0.141309915,0.264623554,0.114180165,0.144028382,0.120598523,0.069334073,0.088091028,0.241880024,0.137471382,0.243655839,0.181344584,0.324398643,0.320234319,0.350737737,0.317899131,0.347353266,0.293025526,0.285879239,0.334766509,0.213645277,0.248456416,0.294633398,0.119392955,0.241431172,0.10414004,0.30866325,0.164214849,0.174006173,0.307784438,0.066439393,0.114951169,0.123459017,0.050121839,0.199053846,0.142602497,0.196983441,0.257219596,0.385677197,0.379399286,0.370118518,0.435697037,0.421689872,0.41567097,0.412330401,0.318799406,0.310652412,0.278183641,0.173660864,0.138393918,0.187968872,0.085064377,0.272701976,0.088952658,0.124481443,0.282736535,0.073713985,0.270084351,0.105479735,0.056487287,0.151916123,0.171767955,0.148350224,0.361159358,0.477431262,0.355470993,0.366697539,0.361224863,0.363410394,0.241581691,0.385723536,0.355198641,0.378256046,0.270822419,0.253297111,0.205333215,0.164771193,71.32142539,128.3126548,97.70458742,140.4787499,108.118119,82.82662472,94.99450749,49.73334351,60.40472005,27.72856012,26.75346175,43.61036908,31.57092646,28.1751651,30.41754501,37.27243327,21.67061427,40.74108543,47.94329107,57.66183044,61.20700785,120.606898,118.3722015,60.86948809,74.7331454,103.0386355,44.95269345,92.14100132,83.96342705,130.7243135,122.4480686,89.61345865,80.22160343,72.66896296,34.58281452,30.34305781,27.66384478,40.83357382,30.45116348,22.06663575,24.94372583,23.30979543,16.14205477,27.43557541,39.94311003,53.1190328,33.3309927,95.31700531,109.1329202,71.52740917,34.74508266,104.7121722,56.53549975,46.19392582,148.1510364,129.8798985,140.4539035,108.4836083,94.67939579,88.51109039,29.79980127,36.85592011,37.26588189,25.11848184,29.75574473,36.01145548,25.12978742,24.09720653,25.39600426,32.93271572,35.38279524,40.32469943,38.77662619,90.55642389,131.0641499,111.2859381,65.38578787,90.92937238,75.96719495,56.68033028,130.3514122,110.7049349,127.7094891,120.7991013,92.94341248,96.28624378,68.44478415,33.34191171,46.77588652,49.70429638,46.34078312,38.71116367,40.76576405,23.28202574,18.39436748,19.35248852,35.50315064,41.08150419,52.24773424,61.3206923,159.7787487,113.3231775,52.26415566,53.69427294,84.72648857,41.11577398,80.66637538,121.8439421,140.2381895,135.166423,89.5194338,85.96150217,78.54465353,28.74474117,43.10556502,33.86771456,27.98373723,24.26902098,29.00874971,20.69415145,31.05810137,27.19574833,32.35428105,31.59213148,53.8823324,25.62398809,97.05052743,106.2276688,70.93956202,48.2950989,101.5311002,52.46960708,64.17420056,134.7200833,114.1014767,126.4950071,105.7084801,85.44096708,92.53230472,36.54490527,37.15391105,28.93483369,23.2239556,23.93550491,24.92497756,26.38803652,21.37765746,23.17136325,27.82481417,38.37310736,42.75987926,50.30740632,92.92616278,125.1525273,114.6995102,58.52704903,81.98317939,98.92276977,56.53815922,127.0574383,111.3277537,140.0363981,128.3929124,84.04810218,92.25790406,75.98548681,39.09549037,34.23667612,25.21056085,28.14835268,17.878846,14.61581284,16.32351291,15.16149757,15.81734678,18.95098717,25.62050401,29.63699722,32.01501127,105.466338
429,0.423546056,0.367133368,0.42289127,0.367455328,0.404563604,0.366399844,0.394721005,0.317031616,0.212908709,0.334499275,0.2403642,0.165374743,0.205178751,0.115231893,0.314085846,0.174051078,0.20089672,0.346921998,0.090190774,0.14165661,0.167311861,0.057818778,0.173476674,0.155770239,0.261325291,0.318137075,0.42224863,0.412737867,0.447310585,0.413276104,0.362716353,0.354815004,0.44099521,0.42784837,0.426400901,0.320688448,0.235142183,0.178745232,0.17382446,0.086081932,0.36580636,0.119970307,0.137497098,0.057682074,0.095977444,0.308669061,0.097201478,0.065833173,0.163615363,0.293787622,0.152186318,0.237339809,0.229564306,0.392859264,0.411292859,0.347184104,0.455968204,0.451999861,0.46409393,0.402663995,0.390804824,0.228576137,0.366701712,0.282145716,0.136692653,0.188943482,0.117378803,0.306216241,0.210022662,0.230742167,0.339719111,0.08006325,0.13764107,0.114881408,0.063096974,0.213343445,0.162916589,0.274917293,0.257038413,0.43366125,0.43668502,0.499507654,0.495013371,0.474150862,0.614383651,0.366369501,0.313194635,0.130387598,0.05950628,0.13899492,0.082462254,0.093274557,0.053726303,0.366629414,0.098655679,0.105409797,0.413544476,0.076918867,0.212736171,0.098413637,0.06815123,0.186677026,0.122758934,0.210617522,0.10928809,0.072787669,0.085631346,0.074435201,0.093077338,0.069587773,0.0755169,0.027163362,0.11710319,0.197909835,0.261943634,0.281714128,0.279594252,0.182764728,0.204736799,0.176555746,0.125248685,0.128451214,0.260319309,0.277276942,0.107170611,0.152126229,0.157554305,0.090599085,0.250730246,0.196677264,0.28073181,0.28363437,0.329317086,0.340140082,0.360476648,0.325136482,0.335111823,0.336894297,0.315808717,0.328116144,0.299506704,0.306299244,0.292753125,0.211873735,0.267144001,0.114605532,0.353754116,0.139289155,0.195595804,0.307118583,0.109424064,0.296948741,0.167850842,0.08470202,0.213871147,0.222188157,0.212294276,0.27768344,0.296017952,0.34115653,0.314714952,0.352338377,0.316352381,0.31021103,0.309918302,0.293086782,0.29987616,0.258319665,0.273604973,0.232349725,0.17866257,0.172831659,0.179745366,0.235918806,0.228816587,0.250429783,0.268291309,0.108517156,0.180210899,0.139794028,52.54825257,33.43878121,33.30771872,33.26564052,39.34384853,32.25221512,26.91127352,44.94972455,42.65544553,36.07642181,29.44260572,108.9859672,120.8064343,81.7651453,41.1485516,97.10394126,69.86514475,57.31403958,139.2743126,111.2663298,123.6331496,114.8807194,89.14568308,98.83246966,40.50672234,34.95758649,33.72327249,36.52503287,23.95447447,23.32243104,37.9294419,34.4997477,23.30870446,19.01261907,29.9691518,33.40624897,52.65739166,85.15148764,167.5569304,111.8323672,23.08240321,63.74957233,85.97696182,65.43499289,117.6892609,105.692646,129.245401,118.5001727,68.06147772,55.51298344,140.2050831,120.6170262,143.4467024,113.8078609,179.9179711,99.46627783,126.9982082,131.8544391,130.9096303,118.8123773,131.3022638,130.5331462,106.282984,131.4923253,136.7222401,120.3924899,89.43713321,129.9046011,50.09858721,121.5334969,90.8212347,127.921553,122.7103615,124.9674459,117.0547581,71.44405005,110.5143171,122.9568586,111.9439315,133.2471456,125.2066584,131.6585843,128.3072329,129.6963506,119.8518037,120.5932102,80.08695295,78.33021306,42.03905575,66.21668705,134.6852932,52.6129287,104.4931939,111.9108495,123.0882691,112.3813699,111.9022644,110.8858647,118.4160134,88.65510902,110.7706942,68.29390549,72.73838172,144.0603349,80.11906943,104.8725848,121.4580118,103.5555794,55.08730479,51.9430077,80.4095614,69.72994191,62.12692435,56.24213488,111.666845,103.7710424,111.3267866,141.8022178,131.4091768,91.78041256,113.1412327,45.17972222,103.398944,80.29658805,139.5435763,144.312243,134.4783771,93.99059707,62.60832527,76.02542585,110.9130652,86.22326307,104.1726623,97.30545761,98.46231805,89.27018452,99.61116182,96.20709978,91.80421715,86.41289473,100.9135603,101.6222041,128.7116515,130.7316504,123.2464172,115.9007631,71.94839999,106.7356815,78.10296077,93.69550628,103.0570683,107.5457254,145.6678164,108.5887047,57.03248396,59.88613026,135.6743739,102.7309388,133.6088522,111.6157925,94.76710163,104.5620036,112.7661697,104.9728025,110.6235151,111.3612076,101.790766,100.7923514,90.73420882,109.7360045,133.0621885,114.9276724,104.7744885,110.0360577,42.08696211,108.0482946,94.73665855,133.0326815,119.0685992,131.0234725
430,0.303478999,0.344436094,0.297035289,0.265665535,0.224254711,0.212348177,0.172783485,0.141832528,0.198991687,0.214097802,0.186096319,0.284953274,0.190373594,0.150208891,0.163367201,0.113329049,0.089573834,0.279361764,0.185299877,0.172307247,0.19084393,0.252371277,0.174602102,0.221472993,0.170774804,0.185359756,0.230409022,0.233910234,0.254438069,0.23038938,0.216898468,0.247177948,0.160109437,0.251608654,0.096606293,0.186700231,0.150561303,0.174686661,0.346862275,0.123756013,0.413923605,0.364270446,0.081729841,0.424798141,0.40792295,0.142680107,0.492154557,0.058493924,0.37525664,0.556110002,0.474187821,0.476219459,0.109063062,0.244279648,0.130636896,0.317816788,0.285205771,0.278842241,0.320046569,0.192552022,0.169391995,0.29844806,0.358893533,0.2793396,0.31122574,0.381217202,0.238778595,0.089131891,0.101825277,0.094413409,0.344103508,0.275966596,0.453373985,0.45243508,0.561555035,0.506019533,0.526670048,0.07527941,0.181686312,0.422563535,0.424839503,0.398343835,0.479525321,0.516991048,0.474721913,0.232342908,0.236029454,0.122924869,0.438538709,0.172683962,0.23219141,0.483660361,0.130128592,0.404620758,0.319682174,0.076149514,0.348129499,0.269673838,0.290252153,0.459046613,0.468114669,0.483779447,0.55599482,0.527268581,0.517065363,0.513116704,0.503706616,0.484556083,0.535460489,0.069043356,0.406466682,0.434276591,0.337358208,0.280097535,0.232951621,0.197325962,0.359508815,0.439893986,0.463789063,0.258851188,0.198167323,0.129607715,0.128054066,0.155504688,0.050191491,0.185984933,0.395121854,0.28631438,0.464079632,0.492555328,0.518821098,0.464594771,0.505083289,0.487454153,0.405437785,0.396190242,0.423094142,0.422671631,0.267965115,0.488841315,0.13768401,0.594638696,0.203567958,0.315064713,0.555172195,0.16485887,0.542452346,0.293214397,0.09767821,0.408000189,0.476526629,0.346585638,0.52724454,0.499488679,0.531310654,0.555705062,0.519686429,0.458911736,0.496398412,0.519122126,0.496170575,0.235050433,0.214543864,0.153535172,0.229454881,0.146655166,0.38436933,0.300793627,0.454441588,0.428525548,0.427997678,0.466504622,0.231182738,0.291192846,0.375347764,0.135611404,0.458279218,0.288384231,0.319710504,0.420450453,20.03144017,18.60838904,29.80380679,20.30726621,33.04762457,29.57084345,124.7595738,104.7532095,44.35374962,28.86169756,91.82581738,33.15798845,51.69886278,109.7293533,112.3995519,120.7738615,66.94205025,97.65371493,70.60696394,33.42454498,26.65100572,27.45818656,47.72523153,25.33309012,34.91270638,38.06034737,22.16908679,26.22706052,24.08406806,27.51408625,28.43742191,26.51506298,85.18288262,77.49342611,56.51514814,37.74395368,56.25464957,75.90155733,23.69542909,76.89998383,52.956221,74.37316792,98.49832019,47.07849859,74.9113673,49.58159106,20.61110731,39.41068581,41.21146015,16.34935438,20.96904034,21.63994717,34.84329924,67.54457591,33.41760628,24.66531782,23.38893629,32.77769172,30.57143811,91.95512873,77.1792639,35.73693517,19.18566756,73.67081274,30.70628324,28.22273314,57.53181104,64.94975001,124.0266518,63.95244762,54.66968038,41.14252442,14.94490891,16.18517606,18.45457211,24.09332787,18.19763703,34.19065383,79.79069145,21.19748215,22.03219365,25.54505228,14.07654091,20.04466292,17.78761733,45.46061197,66.14983621,76.55164105,34.91235598,58.84969301,45.82448502,22.39187069,58.23463911,43.67668074,78.78962476,91.62918604,58.28821451,99.18934199,36.64580525,20.73882778,19.75113491,17.80602865,15.85398859,16.85101692,18.27869506,15.39517399,18.35260222,16.64575539,19.31948625,46.81596446,27.1998116,16.44901489,44.58653501,75.86208528,45.28380121,25.906931,48.33567478,21.41064562,22.16601925,53.34215932,56.89414402,107.0243317,62.82836528,61.25457521,82.80141078,50.03076336,20.57403968,39.84480332,14.9552745,16.40555995,14.02200787,16.81105682,15.92364478,20.58339309,13.86812373,23.13570912,16.70574915,16.52522198,42.66577928,98.5712951,97.93687844,37.41489704,65.03743672,59.50182536,32.28178176,62.02422432,57.21997543,85.666904,83.09370784,63.45874182,73.36865114,33.88182001,20.5685014,20.27360264,20.17431578,19.76146844,19.88010917,16.24631096,16.36641338,17.26926111,17.03728159,29.38937319,23.00749701,27.37104217,20.63612819,53.69398023,35.02507145,16.77166287,14.95366477,38.98303906,17.45852162,16.72621635,40.60811685,48.10666123,72.25837512,64.18461771,54.54840937,37.78380549,20.09652936,21.80275952
602,0.209434666,0.217597501,0.221359536,0.196643653,0.179669297,0.191696302,0.195219463,0.179263448,0.162110537,0.221276423,0.158388716,0.215872615,0.173422996,0.172985006,0.189968822,0.177462713,0.181397288,0.20425829,0.190967149,0.202575082,0.227732634,0.173129456,0.175025329,0.216057768,0.229334537,0.22887129,0.229884728,0.138055273,0.189286617,0.157573669,0.145083602,0.17488026,0.194702586,0.189323424,0.167736527,0.198464001,0.157220827,0.142087796,0.208002115,0.170841087,0.214398273,0.208156056,0.207245785,0.197403773,0.173189866,0.195537035,0.161557273,0.154503448,0.159578212,0.168788077,0.203809982,0.191831585,0.213078815,0.206562345,0.192607635,0.209404959,0.201861981,0.213172067,0.207862664,0.172423614,0.203409598,0.200043466,0.195775878,0.225653072,0.20260289,0.211307086,0.2104671,0.209907808,0.220642357,0.182399056,0.188486285,0.175385776,0.179322495,0.178059492,0.17642321,0.190481261,0.21037215,0.189449013,0.195517905,0.203810265,0.185192284,0.21303399,0.187893078,0.215989683,0.176458545,0.1983176,0.191785602,0.182890768,0.22039483,0.194758258,0.183163293,0.213079731,0.204931331,0.184181234,0.192190159,0.21287322,0.225564919,0.217211223,0.176495961,0.212229024,0.195217888,0.187580164,0.157268911,0.200165128,0.173899569,0.212646516,0.208208995,0.224121396,0.224110426,0.212482266,0.190990366,0.193197088,0.184431043,0.229252546,0.218094588,0.240555888,0.198285376,0.139460042,0.166611702,0.190905375,0.199773845,0.206061579,0.18685636,0.164984856,0.195913109,0.435093701,0.483605698,0.540636723,0.559773991,0.353483607,0.321772748,0.505478877,0.460623128,0.478049475,0.51818028,0.51336891,0.535786225,0.52468084,0.539455064,0.529029114,0.551204538,0.483025554,0.529521596,0.544133468,0.521137741,0.573126328,0.190070311,0.551663624,0.606519676,0.54169678,0.56552993,0.542657185,0.568332972,0.360618222,0.540602867,0.594071304,0.588698157,0.56043999,0.500849896,0.423324186,0.481026984,0.613473464,0.279297419,0.095665015,0.180711072,0.162077322,0.213118237,0.219919015,0.219888603,0.363144206,0.372479906,0.264143031,0.273966061,0.301990718,0.248670913,0.205245739,0.201351316,0.192740852,0.254328693,0.217378668,29.4214789,32.74314638,30.22215712,28.88860514,23.97119853,29.01027006,22.56959526,26.00930075,19.43931286,24.21989605,24.29522051,25.61279386,28.70354389,23.17226709,31.71628945,28.34909713,26.48338208,24.50727231,23.40650972,31.32363806,28.11204381,21.02364089,29.17103602,25.75889393,24.59683052,29.50227655,28.34942547,24.1351257,32.53982177,24.20653086,26.25961707,25.53260134,24.06199017,31.21368226,19.49177351,27.02726979,30.53255209,21.4472823,22.49496205,21.41296399,24.76654492,28.60577893,26.99037111,32.94698876,18.41682103,23.22063749,29.94915781,23.10942951,26.20113489,22.79019037,18.19431112,27.49946204,28.14794183,23.8859499,24.1561674,29.84385089,26.82992586,27.27203857,22.36487654,27.28397054,19.07874098,25.75291504,26.74990956,28.44077099,35.70425133,34.80262962,33.495561,33.71108091,27.98125026,24.22259946,30.09777771,25.22075748,24.05341591,20.87901763,18.23946078,21.25765762,22.23382346,26.17334358,25.53644231,24.34531192,30.183423,23.49890788,25.39618487,18.17900298,26.22769462,20.33080044,19.91667434,19.10240037,25.25911625,21.90513862,22.79308899,28.19125046,17.86507516,26.78412473,24.05196243,25.34497873,33.6819655,28.47263433,30.54513339,24.43867535,24.60626508,25.73212263,19.26988767,24.21978654,22.62326394,24.4060123,29.06844159,25.5031921,29.34647492,25.53840836,27.60795125,25.73860413,23.49647099,23.4539002,21.46976935,24.7116777,26.75172817,28.8304265,23.62614484,24.69262346,24.88095803,27.4613394,31.09400054,23.42795606,20.88291142,13.51402477,14.25514232,14.35046243,15.89079171,31.34469278,27.34856726,28.97146837,25.46633009,15.60676889,14.66909487,15.08107027,15.98422503,17.99688633,16.24281597,15.72605441,18.30824679,22.26312801,20.46261425,16.32217667,20.67146848,16.44163028,32.5794616,19.76329498,18.70465271,28.24606371,19.25132053,25.95928284,23.53281794,35.6449701,18.8228025,21.74283484,23.01520365,20.4445299,18.79850526,15.81642715,15.83218695,19.37514365,31.59485171,61.2977958,41.16815513,22.53684271,36.36936644,26.88399187,29.09483671,23.32239561,15.71774593,29.55729211,19.32646182,19.68265574,20.550619,22.23822459,24.58384727,26.64579889,25.55569738,20.20950495
605,0.653008474,0.551829661,0.682893392,0.643547853,0.528095971,0.499820183,0.487114444,0.670853324,0.543665661,0.591803512,0.500449498,0.501123538,0.573754877,0.464384608,0.464136106,0.396199429,0.400121887,0.482030292,0.542117218,0.529232651,0.566373031,0.600581975,0.458188952,0.487492775,0.438389446,0.489707695,0.466705135,0.382132558,0.372075052,0.385424285,0.527971031,0.473633023,0.469925436,0.429166235,0.516555856,0.527791194,0.511530795,0.50506242,0.541465385,0.473029539,0.360929594,0.423387375,0.403806113,0.442474198,0.361106935,0.430437422,0.531482718,0.461286672,0.417012083,0.407666143,0.453693657,0.423296561,0.514930255,0.60471646,0.549434356,0.493195888,0.499728575,0.505186794,0.501404929,0.551412929,0.502280383,0.509028247,0.437160722,0.466307205,0.433080348,0.468654212,0.44071266,0.497928029,0.410553951,0.413306888,0.414122678,0.371910195,0.455717824,0.474018911,0.31987999,0.216269752,0.207905347,0.255047186,0.145066532,0.251599427,0.198833543,0.197079695,0.212303217,0.221634413,0.211656981,0.204078724,0.260937128,0.355080211,0.645939852,0.537759973,0.537179597,0.447654887,0.470878481,0.460727697,0.415529912,0.504388793,0.601632926,0.796540211,0.668988295,0.458631431,0.412745275,0.385027714,0.424730101,0.409196445,0.405785581,0.624391648,0.541342984,0.492960083,0.431367904,0.310927516,0.275060832,0.333236766,0.391843452,0.410359627,0.206215315,0.220281078,0.191511143,0.220872081,0.22992964,0.215670599,0.195934032,0.236366975,0.270815769,0.211503964,0.546092026,0.405500525,0.241163999,0.398873295,0.334121981,0.248084222,0.222656862,0.207664555,0.263568568,0.2184288,0.213446982,0.206958505,0.182030406,0.229597043,0.211629206,0.264875104,0.229189129,0.29130453,0.316141046,0.434688252,0.442784988,0.430496612,0.448494035,0.352612999,0.515637957,0.484029167,0.456808814,0.431295714,0.403470263,0.364803428,0.400066681,0.269238539,0.257414561,0.251119776,0.224526236,0.211740447,0.279575477,0.694357268,0.549417175,0.499082882,0.276226305,0.454105407,0.448141833,0.43215974,0.584091381,0.647870298,0.516874546,0.527850752,0.553251204,0.63505593,0.409713914,0.332126605,0.383944297,0.297842422,0.260101694,0.269225295,22.85257341,17.20419753,23.31763793,21.56642416,26.8178957,17.49257316,18.79334211,20.24376108,22.26351593,20.9817566,18.01235873,19.76334177,22.69995913,17.88423171,19.26861674,21.77843682,16.71253252,18.30740429,19.97424683,18.83784079,20.0182696,19.75054845,21.61897541,19.38703303,18.72534954,18.10659554,18.47159693,16.72695886,18.52570611,16.97686854,20.88824958,18.38177276,18.12065897,16.87014495,20.09004929,19.7193692,21.0576557,19.79559621,21.57759673,17.91606374,17.02834627,17.18016425,17.92459864,18.70248643,18.2082969,19.7164694,18.81191729,19.54811857,19.26998366,16.99268118,17.23715745,23.21194538,21.43334546,20.38451721,19.55462871,17.85699822,18.58767641,19.73920247,18.3297283,19.5950368,19.10149867,18.7976339,18.23166805,18.36413042,17.91101361,18.45931403,19.43603596,21.89320573,17.95327144,17.83863547,20.84779956,16.64068871,22.6760528,18.02311983,15.70513409,17.62882619,16.46767151,21.47326996,16.84786036,16.76545606,18.19960652,17.89251512,17.87538238,16.72969428,17.24721256,15.62605997,18.21473319,19.7388839,25.10115979,23.49671222,20.01981936,22.66186288,18.7566614,21.11380008,17.73309057,18.75338136,22.50769342,23.44043686,21.09337446,22.1151704,19.04177626,21.06099699,16.90432796,18.52950363,18.18138498,23.3300772,18.4413417,19.11914315,18.82906944,16.51229608,18.0896595,20.96797522,16.23765629,20.31791841,18.46505449,17.58305622,18.46878177,16.21027608,16.65930774,16.84720984,17.24431781,16.27906464,18.17788624,16.62072033,18.91551929,26.75358315,18.15547129,21.62470792,17.28382563,18.02936216,17.01594575,18.04962064,17.73233869,16.70793314,17.59179955,17.12648076,16.0667836,18.52485595,17.35563403,19.13995702,20.14877481,16.97113129,18.4104141,17.90717603,19.46808021,20.49974083,19.65352079,16.68586722,18.29859403,18.75138389,18.89362176,18.66657807,19.10424991,16.51924273,16.83598813,16.79882073,18.0153877,19.84674617,18.51420805,16.730085,18.68380993,22.27260409,21.74874519,21.21558688,16.20325556,15.09083322,12.79962382,14.66186024,17.23423593,15.99344731,13.75764054,15.13260796,15.52407874,15.66414651,16.9798247,15.62497961,19.11624709,15.53220806,15.60137013,17.18114694
607,0.122270898,0.136368718,0.130921257,0.117921711,0.126682149,0.120397706,0.16078405,0.144173935,0.12679838,0.13141522,0.15459311,0.180746572,0.196698847,0.163788092,0.173703425,0.16304524,0.167020225,0.182268301,0.16441026,0.184008017,0.198780953,0.177835337,0.229398851,0.140181607,0.114495784,0.150387758,0.121403382,0.118807966,0.108090741,0.126922955,0.107951036,0.165011594,0.122890402,0.17773894,0.087111152,0.090909052,0.102770911,0.119156455,0.110522895,0.11112438,0.115608969,0.115091694,0.095739604,0.090709779,0.096123294,0.102661962,0.111768408,0.091271773,0.103600157,0.102886502,0.096942281,0.089824935,0.10117375,0.110654465,0.175139295,0.101448561,0.11143138,0.101852603,0.080875379,0.110901234,0.095609404,0.118315639,0.095684333,0.096943157,0.088546476,0.114270703,0.09428836,0.12902199,0.098582861,0.13456277,0.117170494,0.208956675,0.135183074,0.105784659,0.186524966,0.097901943,0.111312086,0.091603001,0.103902149,0.106856955,0.099663002,0.085403715,0.0818819,0.147025491,0.138739948,0.17557389,0.130184347,0.100894259,0.105161964,0.154486807,0.092399947,0.12711186,0.111247465,0.110370848,0.140858703,0.186912438,0.137564647,0.105725882,0.108660066,0.105143694,0.110886191,0.099179406,0.101773702,0.122511239,0.128914438,0.165379433,0.113398528,0.147869245,0.103838402,0.249747269,0.130654978,0.153974867,0.12803086,0.103430271,0.113480567,0.200276539,0.276922551,0.138810952,0.201156908,0.114684371,0.08848664,0.122200575,0.100864107,0.110959951,0.110229195,0.163824165,0.17422816,0.194788264,0.235588764,0.438285536,0.3563078,0.185895824,0.23502176,0.335447891,0.463322254,0.460068283,0.186467248,0.191307583,0.213591875,0.186103596,0.327959591,0.151300883,0.143330403,0.164934962,0.19991125,0.174081191,0.183586837,0.171130511,0.190633575,0.159406754,0.165665779,0.132578428,0.14112354,0.18825934,0.198576614,0.202645205,0.26093587,0.217865027,0.432079191,0.665849388,0.570135185,0.54317091,0.520832257,0.5084024,0.467804685,0.452829798,0.470786054,0.480123782,0.413347016,0.388735725,0.227606272,0.059085875,0.681248717,0.482934956,0.72064016,0.483046182,0.62530748,0.500180799,0.751771172,0.209202344,15.63500276,15.45906633,15.68839137,15.43729659,15.6141581,15.3725005,16.94038454,15.31417545,15.97129889,15.63912561,17.83561473,15.58780306,15.97800187,18.83184427,14.91880182,16.41146137,16.72726283,15.51193826,16.27583355,16.35011674,16.88226423,15.92147803,17.45284443,17.30427817,15.80674089,15.2412492,16.01146659,15.14085786,15.38851465,15.66416708,16.98249264,18.10672066,17.73028936,23.21146659,14.80028972,15.09987609,14.90865295,18.65176825,16.54400129,17.39450014,16.20785415,18.16610414,17.03185614,14.77262769,14.64100167,16.11342746,14.72748527,14.98492333,15.04731997,17.04295995,15.36919219,15.72442689,15.05219227,15.11661389,19.40204532,21.92942209,17.28960775,15.48813156,14.92009535,16.02857404,15.3323673,15.15041204,15.68577067,15.42087439,15.58041283,14.23867965,14.78043705,15.69345369,15.75714723,15.58176605,16.24823112,24.89014978,15.72477705,16.06816632,19.36569793,16.6742047,17.42282317,14.83969653,16.0283295,16.05761342,15.9157725,17.13556597,16.78087754,15.62634104,17.35245376,16.94041243,16.07872539,15.02268461,15.1093527,17.9535738,15.97689724,16.03827315,16.80113513,15.41404575,15.80927312,15.50325281,18.11284038,17.0305609,15.49141385,15.99722591,15.0498033,16.25560158,15.06843231,15.0035077,17.2842574,16.45879739,15.53334325,20.36333709,16.1438636,19.56046849,15.73959097,19.21344844,17.67090016,14.65288943,16.48825654,17.94652429,18.5323391,17.9133544,17.21887135,15.79551003,15.89780319,16.4723971,15.63662163,15.32156036,15.55675029,16.98410284,18.0831252,17.22737701,18.08634386,22.62975051,21.19257744,18.46221466,18.2852768,23.37081223,21.53152784,19.15660492,17.07794762,15.83904347,21.37666907,19.12135029,20.83134209,16.02589322,16.28203406,16.15061518,17.91482583,16.33222445,15.97622346,15.97215834,16.34933139,15.69620121,15.85099345,15.02497581,15.47749049,21.42054834,16.10661476,16.38717888,17.47856821,18.73332107,16.72395946,15.09359668,13.01916986,12.88046731,14.35886747,12.87958547,12.8384118,12.66557515,12.91667997,12.6178052,12.85662555,12.7087607,12.59960168,35.1468914,34.24500624,43.0988389,24.95247558,27.69207918,23.68734247,24.62309804,16.90117588,37.99728952
609,0.109454522,0.102873606,0.119281964,0.115556063,0.124621974,0.108832623,0.117864828,0.107450394,0.108417232,0.117001907,0.118996082,0.113307962,0.118356778,0.126507832,0.102019413,0.111803744,0.127403853,0.11285201,0.116716051,0.100608141,0.116060453,0.095269418,0.116542596,0.112353145,0.108225969,0.109538049,0.127969812,0.11111637,0.114263454,0.095751754,0.109940166,0.10103977,0.107989377,0.113352723,0.100421548,0.101296398,0.109204711,0.104232873,0.109788216,0.111177099,0.101276972,0.105219425,0.101470638,0.099334691,0.115835053,0.112547289,0.106257127,0.102197211,0.106199931,0.097204452,0.105578622,0.113750443,0.090892155,0.08627365,0.100908705,0.098660062,0.101187016,0.094680865,0.122797005,0.123198503,0.109887154,0.095344599,0.101922413,0.08250221,0.104008865,0.104949399,0.170635139,0.133794593,0.115377138,0.118981523,0.158157135,0.130711702,0.10887046,0.128085599,0.111024517,0.112485202,0.115914985,0.113303858,0.111397691,0.093743296,0.099286272,0.107923351,0.121264496,0.128354652,0.121957813,0.113614573,0.112809435,0.097047608,0.092568915,0.091775757,0.096236483,0.093965708,0.106869739,0.10182672,0.111664684,0.102496545,0.107771983,0.126522169,0.104422893,0.193114921,0.142170684,0.143736141,0.405456323,0.488887975,0.131096837,0.130850053,0.118258238,0.111190574,0.10744105,0.11666118,0.1174628,0.081479655,0.091606574,0.103772491,0.119861773,0.104846157,0.155813419,0.151125806,0.11514938,0.086250203,0.089982867,0.106277082,0.131206705,0.291542527,0.305179077,0.308049035,0.373517363,0.287319425,0.244815698,0.137881141,0.191029299,0.240323043,0.219486844,0.187163882,0.236001374,0.265893184,0.195191737,0.22873176,0.225851067,0.253844885,0.278819213,0.21510354,0.238559174,0.210024371,0.217534143,0.20766116,0.233557357,0.225322364,0.228760804,0.21085846,0.208263498,0.226536492,0.206041542,0.266157674,0.313767179,0.317539156,0.232059674,0.143349142,0.13551413,0.117463749,0.127755271,0.117664124,0.111840114,0.11535098,0.127013547,0.125391094,0.132375462,0.131809038,0.136899355,0.129790681,0.086534351,0.117458866,0.121503214,0.117379019,0.111728751,0.109650931,0.109638851,0.119572635,0.113849066,0.117086432,14.22021066,14.13397185,14.4556587,14.35582204,13.62715826,14.1892364,14.213274,14.35099747,14.2914766,14.51485141,14.20754759,14.27841173,14.1473816,14.41238277,14.24997338,13.73808795,14.11025228,14.64326929,14.67742532,14.27677688,14.16430359,14.29317823,14.41257461,14.49207051,14.68862658,14.58263746,13.93061331,14.36939978,14.45349919,14.12836928,14.91707877,14.23325279,14.48348911,14.4071459,14.55535506,14.49229836,15.4972749,14.58269335,13.49592421,13.683283,14.50703146,14.55705895,14.06769258,13.95958349,14.06369503,14.02565311,14.43501757,14.50864779,14.11354791,14.89512002,14.54322579,14.13445748,14.24034694,14.30546099,14.37767206,14.50167895,14.39305973,14.33865231,14.30451604,14.42147575,14.69605405,14.38112891,13.6648764,14.22811367,15.16234141,14.24563483,14.9053594,14.6987079,14.69614778,14.58744039,14.66849488,14.30943446,14.22131095,14.52649617,14.73416344,14.02203129,14.42382264,14.46444138,14.15769412,14.46279841,18.58759929,14.5755324,14.21583297,14.59230186,14.63625508,14.35858507,14.59169241,14.72808011,14.46804752,14.60564541,14.02448127,14.18078083,14.09934139,14.7465864,13.67505528,14.21434493,14.2291703,14.38712302,14.33983387,15.25558694,14.71927474,14.48832076,13.74114755,13.57992439,15.86174802,18.39003574,14.73437637,15.03117571,15.19502178,18.15131932,14.98151453,15.50865275,19.19727911,16.62046054,19.3524542,16.57466407,14.48698115,16.17878257,18.4759911,14.39587523,19.30642226,14.98241494,16.46859479,19.27011923,23.47669588,18.33346405,21.29690225,17.95621334,16.99179739,19.50623523,18.82579207,24.0923161,21.83618657,18.37640107,19.91548718,19.4941246,16.0882369,19.72100605,17.31333226,17.9929318,16.66471014,16.63676176,18.2024787,16.22354613,16.42492241,15.92507824,16.97520434,16.86833702,17.96688666,16.22738507,18.24600358,17.05731105,18.49421871,16.57718478,17.51533273,16.31263046,17.3249837,15.18621282,15.21076772,15.20680708,15.16172788,15.1769818,15.62973006,14.60830131,14.83615893,14.937233,15.05276858,14.85003891,14.30106787,16.71250583,15.30759079,16.03602733,15.82534696,18.3285138,14.40334093,14.81060505,14.71839526,14.68515829,14.53874219,14.49179569
610,0.145413448,0.14049525,0.178898536,0.110413941,0.119018899,0.077993492,0.069898638,0.063994141,0.062541047,0.07443813,0.125719578,0.081951517,0.145446594,0.11756936,0.082950358,0.077358412,0.079949943,0.202245891,0.141126542,0.159284283,0.117136143,0.093594873,0.069192345,0.071392002,0.081308011,0.085190858,0.09231173,0.149399602,0.166740027,0.133777971,0.099367488,0.064689789,0.055674489,0.086373378,0.077291474,0.078432591,0.084010807,0.095487706,0.093892622,0.100481656,0.081328269,0.076125553,0.078434487,0.081174607,0.088020557,0.152765238,0.119204672,0.138227879,0.080983206,0.076491234,0.074240165,0.089918185,0.083485639,0.140359959,0.116683891,0.158956068,0.13114187,0.1433413,0.160811616,0.094891567,0.085039453,0.144585732,0.194612105,0.11486681,0.135238358,0.150502632,0.163106597,0.109483425,0.078987544,0.133168713,0.097791971,0.112555753,0.118464807,0.119504673,0.137861478,0.133948826,0.1321038,0.135118629,0.101201226,0.094831395,0.102595134,0.161391271,0.243910081,0.196519679,0.201942563,0.30800162,0.149285794,0.427352584,0.594314636,0.296392955,0.403955172,0.313183406,0.699499973,0.493448831,0.834260049,0.644008121,0.500591719,0.521299461,0.826342317,0.754507235,0.305450239,0.287581506,0.48234445,0.350779296,0.322987971,0.445887224,0.316768258,0.643522579,0.593583257,0.550316175,0.968619889,0.986220329,0.501229647,0.623620027,0.714617422,0.431943704,0.580448725,1.093709894,0.451739196,0.469280372,0.107315012,0.101263787,0.114176486,0.095498411,0.093725936,0.087673034,0.083231272,0.089079033,0.076551635,0.114381899,0.130717941,0.206011386,0.18031884,0.143438693,0.170507331,0.191107336,0.128039139,0.074406542,0.066854515,0.087682732,0.082315645,0.118431372,0.10924164,0.119440814,0.09681117,0.104420036,0.103988205,0.106504414,0.130388443,0.125643631,0.108984484,0.099198266,0.09506258,0.104383358,0.10085619,0.09645631,0.096225702,0.111035776,0.14077394,0.124397747,0.111621531,0.12381386,0.116528144,0.132403647,0.129119897,0.142081521,0.131741809,0.143413283,0.210740208,0.143967329,0.130555252,0.088349262,0.066264603,0.083146504,0.066183495,0.094209818,0.099947778,0.115780069,0.113841779,0.165755256,17.99782154,18.84234886,17.93989807,17.90607076,16.3661338,16.02883317,15.03421668,17.03689184,15.78552746,14.97858998,15.22202409,16.66056204,15.98606666,16.2167305,14.95583635,16.61978232,19.1523162,17.89259614,15.99915746,15.52548208,17.59955397,20.44734814,17.68301166,14.88643031,19.57992439,14.36242731,14.83785503,16.13394177,16.32571171,16.10882831,17.14742167,16.60640917,18.06951743,17.47007176,16.1622884,16.29973832,15.50072021,18.38878049,17.3102588,18.00557969,15.55065194,16.66090863,15.02243915,17.30980943,16.38160749,20.3023462,14.56285037,15.49702997,17.82698335,16.43788916,14.72284866,14.01280304,15.7027891,19.91825743,16.50887116,16.73642891,15.75408568,18.62560502,23.31726551,16.38762117,15.80780899,19.72819976,18.60407121,18.17743815,18.17344457,15.63786113,17.48666961,16.42593477,15.56240723,18.84169583,15.42125173,14.78971091,19.79608555,15.30825306,17.97152587,17.78349189,17.4360319,15.3624789,15.49545693,17.1358312,17.039963,17.41069375,22.30366309,24.45514834,21.89209886,28.21645714,33.60655758,26.15352012,26.35507064,23.60635678,34.27037825,20.83280834,25.31143042,20.72422655,25.99024776,24.31424818,21.43392772,20.46543446,24.83534818,25.16998255,18.33548761,18.60562756,20.65378858,26.57762822,27.65925171,19.73974957,16.98810362,23.47950716,23.24885403,25.06841885,26.45150863,27.68634521,25.61235609,22.10370367,24.36108605,26.66651137,22.54633649,30.97858068,22.03829822,22.90176037,14.89522212,14.85990743,15.77441935,14.36612624,13.8508817,17.56754757,16.37372228,14.61651534,15.65024642,16.428304,19.97226841,27.1959076,15.63195915,16.67330132,18.66087146,16.66022335,15.06962935,15.7681871,15.24536292,16.31969263,17.58850914,14.77302584,14.51402667,14.66193331,14.17997832,15.50337361,16.232547,16.50834434,14.66825331,14.45951777,16.18550256,16.84098992,14.27652788,14.86103521,14.93976886,13.94995115,14.53100315,14.40823947,14.34254756,14.17572752,14.15941342,14.67564508,14.32765156,14.27919589,14.84715739,15.80444835,14.63737601,15.49783279,16.67361245,17.58226481,17.37211186,14.53630719,14.60775045,14.81416415,14.13977647,15.1981351,15.04461799,14.57215917,17.77880243,17.41904174
611,0.1984574,0.208844601,0.207177302,0.209716719,0.210776092,0.221243276,0.209410145,0.203979299,0.19796612,0.191148256,0.198656426,0.216618915,0.241720615,0.211143896,0.210345908,0.203101491,0.208539723,0.190754091,0.195215634,0.208434472,0.228254405,0.229633601,0.226251897,0.216764669,0.251946727,0.236806141,0.228417291,0.237756636,0.219440219,0.229750327,0.210863423,0.219279554,0.272371332,0.234138235,0.220644214,0.1851232,0.235279268,0.228821448,0.225583937,0.236540722,0.223988498,0.231192217,0.225898467,0.21822354,0.236600446,0.235434007,0.242038291,0.210862833,0.217174146,0.202382571,0.202652504,0.241383815,0.216638182,0.206557022,0.216113442,0.22107796,0.214990708,0.217762303,0.209651875,0.220101334,0.231864214,0.273015608,0.271925647,0.214427496,0.262034068,0.220909783,0.205412862,0.249907485,0.221916462,0.226825021,0.263157227,0.273634969,0.381247849,0.508550495,0.228799166,0.256359884,0.220532719,0.197584805,0.198873966,0.198324731,0.211653953,0.202958114,0.209502601,0.191515412,0.187607845,0.191895951,0.207982896,0.199782493,0.220114478,0.221899291,0.210830183,0.187796175,0.190258398,0.198657055,0.215550415,0.212696556,0.20500452,0.191956578,0.194101119,0.190610463,0.181630043,0.195101616,0.215770002,0.213223597,0.209084541,0.197398544,0.186168199,0.173468105,0.191164537,0.209665916,0.195812654,0.210724066,0.198898182,0.196512236,0.178667608,0.185921069,0.193735542,0.18744606,0.206377932,0.169259433,0.237118666,0.224986086,0.231975462,0.228134615,0.231758766,0.225165551,0.228041992,0.239157097,0.254349041,0.238188455,0.22316182,0.219140829,0.237072299,0.246342704,0.231548028,0.229374962,0.230979279,0.233522275,0.237457129,0.229959585,0.231794525,0.233954104,0.232570331,0.262304996,0.230243066,0.217123667,0.224231309,0.228211976,0.233303304,0.247423158,0.24902123,0.245334954,0.266438328,0.329332887,0.314614253,0.24765158,0.249713266,0.348336561,0.297948075,0.311964215,0.254872903,0.244336574,0.251566066,0.233593319,0.243343872,0.239770071,0.274645472,0.243724657,0.241496263,0.247742566,0.249664154,0.244035326,0.253681509,0.244076668,0.250658157,0.256829094,0.251027777,0.246014736,0.257661558,0.271606874,14.39155238,16.74844195,14.55136692,14.30785768,14.47594064,14.47449675,14.25479914,14.55664508,14.37465822,14.50139271,14.59774096,14.65740357,15.01056759,14.78561301,14.46651492,14.37140551,14.35770435,14.8385736,14.40370745,14.54744106,14.80840381,14.58683768,14.76986578,14.59898465,15.67832982,15.55725935,14.5249778,15.10959804,15.87872693,16.16025505,14.45487508,14.94036431,15.46859164,14.80964933,14.70505759,14.71466294,15.34354428,15.66328844,15.37792299,17.13308861,16.65076456,15.37699178,14.81062839,15.37267205,16.29715832,14.9735617,16.78288909,16.33448664,15.12163448,14.76605288,15.13119062,15.2123883,14.49082973,16.87278585,14.48161695,14.84716533,16.42960302,15.73544694,15.83140118,17.8363682,16.69765361,16.36710227,23.00623015,14.32348215,18.10912972,15.95791884,14.39596689,15.31399599,17.74441453,14.74844714,15.3948439,16.72064463,16.51583656,20.77911293,16.90600209,17.2363694,16.14934408,16.49946103,15.93847428,14.01075256,15.17023667,16.35676659,14.58821507,14.66202067,13.96093167,16.56260633,15.8974348,14.11393039,14.28689306,14.71205234,14.20020693,13.94657143,15.79718318,14.5274769,13.92181751,14.4161728,14.12978943,14.15225385,13.85618636,13.8730345,13.72863431,14.84158878,14.20506308,14.093083,13.87158872,13.63099065,13.73255845,13.72736714,14.83128057,15.10569602,13.81053298,13.81785098,13.8854957,13.78350421,13.83041453,14.76343479,14.58607212,13.98563153,13.78632337,14.44055792,12.61299225,12.62255009,12.63780907,12.62814465,12.61451201,12.63206365,12.63307209,12.62825692,12.64749024,12.62339858,12.63814982,12.62662959,12.64077149,12.64596099,12.62886018,12.62691957,12.64224609,12.62118037,12.65004574,12.64478421,12.67070361,12.63536762,12.61901196,12.62720363,12.61704832,12.61803056,12.61568745,12.63238658,12.63913879,12.64143775,12.64336696,12.62188187,12.62906581,12.99422814,12.83436873,12.6239642,12.62754901,12.78123737,12.61903562,12.70830851,12.62305866,12.61760753,12.62927902,12.63337183,12.62203603,12.63690487,12.69073714,12.63094442,12.62018354,12.61911693,12.64773473,12.63526596,12.63203193,12.62636867,12.63003875,12.6283084,12.63767784,12.61873979,12.63804409,12.61476855
612,0.449042111,0.383684434,0.344550269,0.353344495,0.181116368,0.116350986,0.260181158,0.263738188,0.27093417,0.264975782,0.277703367,0.298484712,0.311087629,0.256008685,0.173031695,0.303359379,0.292518587,0.289807472,0.28688259,0.26159712,0.270784894,0.263627952,0.311251454,0.217541996,0.339847737,0.33523825,0.282194113,0.285126008,0.258784241,0.281453616,0.174526007,0.318453731,0.294399644,0.236241735,0.10866549,0.178112874,0.281853073,0.196260572,0.232871162,0.209291274,0.336709489,0.265124432,0.237698521,0.257801448,0.295888658,0.292531397,0.279955658,0.285099646,0.306041603,0.199404806,0.319573289,0.313769663,0.310814853,0.305608099,0.206684508,0.200257495,0.154737672,0.199012094,0.145025616,0.303992525,0.312489096,0.308818584,0.295470969,0.302570597,0.302949545,0.309231351,0.357030628,0.306168578,0.328695884,0.312308398,0.397899819,0.297422741,0.336451975,0.335749768,0.313754697,0.307537103,0.419329415,0.377375797,0.407314489,0.373359142,0.388141221,0.215438288,0.313235567,0.368004155,0.122820178,0.351923525,0.363736456,0.340087239,0.316611038,0.284849512,0.338941894,0.354100328,0.395099555,0.561896319,0.390075367,0.475252353,0.525679637,0.507195969,0.505595501,0.572527542,0.469258777,0.436652138,0.496203388,0.364609679,0.397294331,0.394775406,0.380796144,0.237762924,0.351744843,0.448532326,0.096162917,0.422876208,0.240445294,0.390401424,0.286748371,0.157681875,0.393392783,0.327653751,0.272063426,0.22588039,0.345191338,0.304950707,0.228748314,0.17748004,0.240684059,0.180190024,0.122588898,0.29624358,0.294446202,0.284839959,0.268670719,0.249839101,0.271785724,0.176122872,0.27321428,0.204248946,0.273369866,0.274937332,0.284997034,0.257764369,0.262181133,0.174971367,0.163011982,0.255713199,0.159700321,0.135517447,0.212232473,0.247022081,0.087907152,0.320350418,0.16751293,0.21378527,0.344029216,0.2005932,0.179245236,0.281865452,0.256749883,0.278332297,0.340528551,0.289093336,0.232644357,0.273542929,0.247281219,0.324680262,0.321154882,0.342184724,0.305916142,0.317464229,0.330564093,0.335801539,0.296592306,0.291192555,0.509749677,0.585376116,0.43590583,0.297761923,0.330200136,0.408716784,0.377315601,0.407676606,21.96555731,19.36156089,27.022707,25.94857576,30.10698507,23.44030729,23.30665417,25.20180157,25.28273424,30.16654672,25.49119898,28.12872434,25.56366074,25.52109577,23.39778198,27.39780859,17.06089523,18.26027275,20.88201583,25.66718357,27.99110599,23.8714352,25.02314301,25.7155617,20.65749853,22.60574299,21.43611193,27.14971994,25.38890629,21.89508598,25.2507411,21.49093978,24.01477874,21.68689364,27.26560715,30.25524994,28.2722532,30.82086457,19.85176794,26.41422056,28.51933251,26.66176883,34.04616129,24.3409067,25.63951957,29.90996094,25.51048678,22.1632172,20.38456554,17.48505654,19.20017194,25.0216343,21.543682,21.5631741,20.45562381,34.61925665,41.59169369,23.43839219,53.92914298,26.74109655,24.58202893,25.11229458,25.2167156,25.320572,21.18331362,22.14099674,22.77692274,23.66432825,21.13235328,17.99227196,23.68501822,19.74030636,20.52181993,19.25128563,26.93855996,21.83145686,28.48838815,20.42987185,19.23505613,22.51714222,20.21078982,23.52837708,20.14224731,23.68727476,35.61222574,23.71280156,22.5624342,28.88984257,23.04069117,20.2030061,25.19637445,24.76636338,24.58300194,27.49641448,21.43580187,23.14597147,29.58815324,23.36277491,27.13970205,22.51199375,24.89022464,26.7032946,29.37595937,29.36661998,23.18873007,25.24160274,25.3703504,31.30355379,30.60842504,24.76515256,28.30890086,24.35477098,18.361657,44.67346301,31.99485935,28.8893402,23.5657364,19.52274372,29.0680041,22.70396895,20.11428231,23.06327847,24.04118933,19.38427483,25.49653064,30.44726755,30.09138996,20.20891311,24.03845598,21.96100442,21.91269507,22.4751549,20.92861917,19.95602979,24.5840067,26.91290992,19.16614523,23.65597852,23.90206844,19.92474652,24.23449549,19.75793085,19.28816479,20.19462807,17.17816851,21.00957275,22.32667468,29.4705763,23.61019619,21.99347238,18.42215069,23.89540053,27.20846002,23.66185102,21.07596766,35.32999357,32.49052702,36.26979621,24.41624517,28.66198551,34.44750435,29.79195567,34.64897676,32.05046536,24.30394693,24.57439299,28.12822724,36.36703915,35.67427762,26.62480077,19.20674207,18.7251499,23.03502675,17.09715039,16.35648865,19.17168229,20.80260675,21.6848444,23.64618882,24.39859216
614,0.093478168,0.16978745,0.120174991,0.162200071,0.165749924,0.163520706,0.16183774,0.141445638,0.183219714,0.147423979,0.141301157,0.172969353,0.142326429,0.155975504,0.16034265,0.158943694,0.159372087,0.131269767,0.148406627,0.161541678,0.167521856,0.160736296,0.175539906,0.141212282,0.154799358,0.159401053,0.102514645,0.154598154,0.14473598,0.10585611,0.16876033,0.147729313,0.143046737,0.159614684,0.129167323,0.14556136,0.172201749,0.168988245,0.126891417,0.175094914,0.168484338,0.149478921,0.160955219,0.153909763,0.140347424,0.124934118,0.142108177,0.171589029,0.149925725,0.159837257,0.175248087,0.114648641,0.141622056,0.11674767,0.135133389,0.148818377,0.152613875,0.135357509,0.146592634,0.153073128,0.161532837,0.176181095,0.167532694,0.168222475,0.171693016,0.120264884,0.107349797,0.142939086,0.157856412,0.151788386,0.145891174,0.144606547,0.139686323,0.158101806,0.155397291,0.145569478,0.150318185,0.121212037,0.153541646,0.114243832,0.121814978,0.177030071,0.190670622,0.16516253,0.17225487,0.165764188,0.144903016,0.130301973,0.14586911,0.176676935,0.188599931,0.235046136,0.22028843,0.225650745,0.23321819,0.215867765,0.231652468,0.242520649,0.188075535,0.238039512,0.225215151,0.227812785,0.23621207,0.265901307,0.223817068,0.242674903,0.220562543,0.230682121,0.238705627,0.21249983,0.216688587,0.245441307,0.23153795,0.240713636,0.25380675,0.246520733,0.237115307,0.236522815,0.205902236,0.20431397,0.226176346,0.186946075,0.188313735,0.182770131,0.193725856,0.135006516,0.180089006,0.167189521,0.142626715,0.12221009,0.189417431,0.345580978,0.351777084,0.181797404,0.209777918,0.19154998,0.1003054,0.135699117,0.108013697,0.12221729,0.106090201,0.109804296,0.259981039,0.581309679,0.525714433,0.573186388,0.510418772,0.499613677,0.596703282,0.499451574,0.564369692,0.604378456,0.578180922,0.580898294,0.50784453,0.52516274,0.567614514,0.550563457,0.536044277,0.539850003,0.560324919,0.509385326,0.479824019,0.506611434,0.536771886,0.559674015,0.54463174,0.527798219,0.506706564,0.518080396,0.569509046,0.532055437,0.508184524,0.552298734,0.510115937,0.544505814,0.524785746,0.508156326,0.543618878,0.51375926,16.72116322,15.65095228,17.11621632,16.06339054,17.07646683,16.24894404,17.18762844,16.34583467,18.28726376,15.9133078,15.89174632,16.39972138,17.479747,17.1227642,15.26997273,15.9161249,18.73146739,16.84082007,15.28872119,16.62025456,16.18714118,16.23374293,20.03842843,17.67524515,16.04980068,17.34879823,16.6159207,16.4338617,18.59595132,16.30544931,19.0398208,19.56243403,18.80829464,18.29949981,18.54977392,19.60843472,17.70144684,20.53570249,17.10796146,16.70729639,16.92084392,19.38884038,18.10324494,19.71244862,18.9689369,18.15785038,16.92290754,17.06237163,19.00876532,21.92656916,17.33541772,17.02127726,18.62984228,19.11705026,17.17698961,17.16164546,17.25420024,17.38780675,15.91367718,42.14358638,16.32276162,21.19815391,19.21127299,19.29286147,19.64862456,19.23300179,17.23497786,18.22713053,16.2364611,21.04895701,21.72128854,18.55695317,20.58122019,16.8579551,18.68875757,17.29343458,18.5129275,18.6004064,20.26842034,22.24098827,17.58922989,18.2562963,20.91218418,15.73868856,18.68524274,17.98997351,18.71626694,18.17193306,18.65431197,16.21443305,17.73656387,15.71983266,15.25834651,19.21528981,16.17183476,16.96412514,14.86698196,15.48839515,16.03686027,15.08759123,14.97332193,16.44479198,16.80732041,15.6513405,15.34091825,14.60301981,14.86119513,15.38690226,15.14996852,14.96545323,14.80752847,14.93874425,14.99920824,14.6911669,16.59621825,15.39003978,14.97310828,15.2442861,14.5383842,15.24755266,16.20878352,15.18806541,16.69365681,19.66422524,16.50807728,16.85471347,16.53137284,16.67204163,21.69111276,18.08930678,16.97317786,21.67761507,19.9278802,18.47083915,17.24737794,18.27926909,17.97010294,16.88181696,14.05897452,14.35741522,15.50356846,13.87820783,15.82730398,13.30133622,13.04116061,13.60251727,13.14470899,12.94952912,13.38386574,12.90546827,13.38810115,14.30065886,16.25247829,13.206786,13.11208379,12.98474715,12.75954247,14.40249676,13.34448306,12.86722321,13.42924355,13.59421583,13.16985408,13.4700328,12.78084371,12.85223689,13.23975154,12.99368384,12.70983372,12.78097381,12.8987615,12.75150159,13.14750698,12.99783339,12.73489005,12.77070679,12.97611144,12.90617317,12.98124085,12.85364558
615,0.094558861,0.095307867,0.104607971,0.136340319,0.130696981,0.108970906,0.125472137,0.10778059,0.100095569,0.07766773,0.103164582,0.118186689,0.09852357,0.096681022,0.103443562,0.093049239,0.087973454,0.106313707,0.098263831,0.096242012,0.091616267,0.092814004,0.116788681,0.087542844,0.087716596,0.096091426,0.100974772,0.098301655,0.081643981,0.086261046,0.098950644,0.103404439,0.075021441,0.09670767,0.074658061,0.10392606,0.091621636,0.096676866,0.115094208,0.089482169,0.087369512,0.115260058,0.092990942,0.082474751,0.128774098,0.108202012,0.092609473,0.088232694,0.101050533,0.124287206,0.083437374,0.078463105,0.105915917,0.097317839,0.073909954,0.111737896,0.097986138,0.099442056,0.111610013,0.109533121,0.103753497,0.117881981,0.070470631,0.084980256,0.08747409,0.134794671,0.11861733,0.093444163,0.115668183,0.099282725,0.140860397,0.119184366,0.08773191,0.129201895,0.13413782,0.091680575,0.110257924,0.101359524,0.075029989,0.094662313,0.087486727,0.067971192,0.085919279,0.079330226,0.090031207,0.094726818,0.087427896,0.084269128,0.079614232,0.093650074,0.118638106,0.113388356,0.106565681,0.106583765,0.099258677,0.108519236,0.091614929,0.192891176,0.107405061,0.100460652,0.096691301,0.079581192,0.127831547,0.097129132,0.113100409,0.090269766,0.108093196,0.099815843,0.106940367,0.104736729,0.126523181,0.114243203,0.132204627,0.128110996,0.094004288,0.102140658,0.1067014,0.102486088,0.127445706,0.136907029,0.112755861,0.090549663,0.10409056,0.094415981,0.113327136,0.099009427,0.110139962,0.100444998,0.103011802,0.114151502,0.091131026,0.119252922,0.092434361,0.139675007,0.092116961,0.085076621,0.106878604,0.110883903,0.13969326,0.108210291,0.143689633,0.119074322,0.110757581,0.140982995,0.064971436,0.100045214,0.093776411,0.098810655,0.139377207,0.106171195,0.077623416,0.116155611,0.107703358,0.127445064,0.09727618,0.108056272,0.125723933,0.105481601,0.077582702,0.138635792,0.125020565,0.120282835,0.135444761,0.139220655,0.092845707,0.109175407,0.12205121,0.144868436,0.104918134,0.135127983,0.155405081,0.094892079,0.139462233,0.131591555,0.143662053,0.124110467,0.161264233,0.132458935,0.128139039,0.146259991,21.72704803,15.16010135,19.57343457,15.63657295,15.59933848,14.59887445,14.08823001,16.31063314,16.81870133,20.38455782,15.92852134,16.04593927,15.1160807,16.00861468,15.23379306,15.00688067,13.91641438,16.04129736,18.06703215,15.2366514,14.37750091,15.74242525,14.48182898,15.55181757,15.51360681,23.04693303,14.51347678,15.11210749,15.81214968,16.25994971,19.0093108,16.36376196,17.13410338,22.49003751,16.33048591,15.23881922,14.93373501,14.93834905,15.02280157,19.01345369,15.21132141,17.78857196,17.31592079,15.16086892,15.45154416,19.29001854,17.43479933,15.37611415,15.83093693,17.24964143,26.12329374,25.47785988,16.16855554,13.7044083,14.91398078,15.27519189,18.10624359,14.73751185,14.72091483,16.99104221,19.09541908,21.45445441,44.16046666,16.23830156,15.55263233,13.88526782,16.07599298,16.13836127,15.02283262,15.3151299,20.3103599,23.11229501,14.4063766,16.56416451,21.06607128,16.8206005,36.67050511,31.76981061,40.2495555,17.89675272,16.82026825,29.15382504,16.22460922,23.15236121,23.70586964,18.81495189,17.1371623,18.64098371,17.806176,18.33572593,14.91331474,14.95587276,18.23016663,17.94463957,21.27439478,18.68582782,45.48799551,23.62706862,20.65355931,15.24057125,15.43099092,14.96751123,15.11043,15.95618188,15.34552256,15.190954,15.53420696,14.00660535,17.70571289,14.85382206,15.37543403,18.44546026,23.66419273,14.38399623,15.80658136,15.70874808,18.75474103,17.10859476,35.77499621,15.40715161,15.6455842,17.40015792,16.44283031,14.70370563,17.89385444,14.13690403,13.64427059,14.62745051,15.96259265,18.98176261,14.03212035,13.89805541,17.49448519,17.49163046,15.75241033,16.99030791,17.7961834,19.64048506,19.72786777,16.69138394,19.73281895,15.13859407,17.06721866,21.47614373,23.27420792,23.47786971,18.19690043,25.58956919,17.19593487,17.50775697,19.60774335,16.47145431,25.22390783,17.92655042,28.86071234,22.14026122,18.84317258,22.20111684,17.49957124,19.66994086,17.55904552,18.80793787,21.37842521,13.9665202,17.98778771,19.25614804,18.64799627,24.64003151,18.18673869,17.34267335,18.72230123,17.59896396,21.70413814,18.26124199,25.29766491,18.19833439,19.00576302,17.29034873,20.60424409,17.9536506
