4015,0.976023818574102,0.812135924667795,1.13132156621921,1.04950652157309,1.09405323656708,0.834160052910016,1.07553012784007,0.98655789406162,1.01569310748296,1.0787075719415,0.94211798404097,0.939630576981645,0.948570820888777,0.905287605913821,0.861033419718998,0.904305747843448,0.547646395304132,0.930652174102929,0.643962233227166,0.979246680244333,0.999325347079224,0.86364063881004,1.10922514886118,0.972194958709347,0.993117244647171,0.870221585006419,0.68794612862749,0.914624955722279,0.199207434698454,0.364916327395344,0.214210716431354,0.588116086511084,0.99703556529798,0.067611820348834,0.294964356135057,1.0190556706818,0.147969460716109,0.80397188847201,0.926892066056245,0.865320450782112,1.02062022333694,0.837837716302951,0.984705258820921,1.07502433018999,1.08892218661266,1.17218255934406,1.0769585229647,1.10430674415469,1.08174666067391,1.16957497472444,0.927498892059173,1.00138127307645,1.10376667356565,0.990726746869354,1.03949953703014,1.20250021151365,1.06738848493445,0.896382401950578,0.99527595516334,0.980928828007622,1.12071097817358,1.22067506612642,1.07446864132355,1.13189278970072,0.966295075017319,0.998576394799112,0.907408665124385,0.532316153140426,0.46672233885717,1.06084188395953,0.088735590313603,0.61385404437553,0.637504887384592,0.72634479884067,0.311780492104105,0.83037730882937,0.435911679232215,0.441902425299089,0.340690342502132,0.495749110639196,0.845540684444671,0.864201407606669,0.847047021181196,0.908943579907118,0.653847881614093,0.922915340533876,1.04412981520551,0.806876258060459,0.855918368042201,1.20607797719401,1.1336417312329,1.17316071991985,1.03075231780957,1.04811890820557,1.15282556944899,1.15818216932569,1.15629945188024,1.0027819584419,0.922128397866026,0.977420845981121,0.932559598047823,0.978682572880878,0.887503800831181,0.984271014526988,0.929045872388512,0.843474660288945,0.694092509131999,0.745320265623907,0.911201768289569,0.989960839858372,0.969500964735249,0.935892944465391,0.916198139757793,0.429286351541676,0.658050047649502,1.09118969910962,0.706804418049673,1.12912886778516,1.03531369823734,0.992088631218801,1.05609300577446,1.15080437176156,1.06912747896092,1.18070643993102,1.03796554467087,0.800385730389206,1.11488016781582,0.974000546018004,1.04174872766064,0.554373996513949,0.5744118303636,0.776310329640127,0.970687329407466,0.962093430244744,0.90724276915779,1.01506614577112,0.958217993484957,0.879538496036922,0.887059612057,0.80326991642835,0.943530997478395,1.00245384245728,1.00998866073406,0.839164123830693,0.979086237860664,1.01996060616916,1.02773103064658,1.19255385151997,0.936916107153089,0.992189650936672,1.04560113747438,1.06165298282883,0.676104125437236,0.809998150275377,1.15252139038612,1.07231725976452,1.02539866810526,1.05465451441386,1.04125391082102,0.953740936488381,0.927569856141286,1.04216715620246,0.993749186353338,0.885133885080454,0.969149245468234,1.1332840221853,0.658071058201582,0.843310122585141,1.01653442719687,0.911367030307579,0.822113695123712,0.733424571266005,0.907542038806471,0.704683032414914,0.850095810383862,0.918117990838689,0.922325449710613,1.08122303720014,0.716293745759525,0.645698739942029,83.5118703502118,80.7742658161231,72.0987476501549,88.1288698882692,70.5706412718237,89.2840701305028,67.9251397124576,78.1476509683683,75.8328482902065,67.0004506311577,89.3804944370373,85.0261071189153,70.7034874499607,104.352720587614,104.084178376706,107.139385520513,122.409153120939,110.004277425479,97.4999425584932,90.673747155407,98.6152449292752,68.6157649392888,85.33447856771,72.9702862789333,89.3455870419325,102.101598470619,107.324403368293,93.0982763786432,112.791595593587,128.119697667907,125.082493539949,126.343263839718,129.585753895399,118.282301868714,105.814361703236,97.4463361106934,115.533697866636,102.323784067093,102.578596515922,106.24055393417,101.574122290041,131.371913105308,91.140095428415,81.7221176755426,71.005866941172,72.949194746421,81.5987894801217,94.9933454457162,70.3230221873073,67.4975829787084,61.7103073308355,56.624655931819,66.6918675912426,57.3659661596869,59.4084807528786,59.7505239004743,73.8266568001107,75.8163633550403,56.1420460069752,55.8717090980418,58.931095998703,53.8087464852741,65.1297029822452,79.4819494792248,98.8702653203378,77.1973397369276,53.9313025014563,73.7920408968168,87.8182965118228,79.6770976364592,115.620164699018,117.780204607913,96.983895247234,122.059109928102,125.638371751636,110.413840694509,127.777871134784,121.693782886183,103.020963439643,133.591007202295,117.310155778647,119.82637439328,109.207274446421,100.24044187275,115.237482975058,115.935737415734,83.7370481180272,83.3492751742213,149.505947104803,74.2620278554856,79.199197318296,77.2777420269821,80.8334630326906,66.4847895787463,61.8237711229409,71.6374918224132,54.755922244383,60.0025264700247,62.0667376296607,60.4725327870772,63.2622318093021,52.1680086846809,61.6534067678903,62.5122657289552,58.349622979152,58.7458680632792,87.0590619344331,105.503599440792,110.137724764715,97.3634928982847,54.7257561989628,55.1408097117516,82.9039436298937,134.96968220294,111.996948588424,82.409455204957,125.02200189491,116.390282526083,93.3576365568875,90.5749761514385,63.3406133069486,81.4716892446276,72.7281740876959,80.3759858263402,109.035887387255,58.1985253669131,67.2172422535393,56.4419359303805,78.8853853616664,113.116400520441,120.361071743367,103.292221883214,72.7519871391254,78.3695436342483,89.9301476566461,105.220075043312,98.5430459989662,67.2948905299195,97.1742708128756,117.353319276504,110.045651129108,58.5637014082428,91.3088830767027,115.024016320091,102.971098356427,65.7674523230934,57.0311572371316,56.8702954062307,69.1744285901509,82.804008679877,109.370290830623,80.0255594493522,122.249764579104,122.195724017894,92.3138750158131,72.0254335212128,77.6502757605328,94.3437770266144,97.6553563611114,79.718170880185,53.7768115530684,88.2126170933904,91.9868085422717,103.60007344287,56.9743809198104,84.8518170458757,94.6110993616276,50.5953176114366,78.5080779846208,57.2973816214418,57.1526587399405,60.1571781588284,58.9418413888213,49.0858182879378,56.8467922464494,101.664943497997,65.5793115902412,86.9293126674871,59.9707623892348,52.0473668782008
4043,0.927365602315461,0.71700846880283,0.577483199677107,0.804118992183681,0.815943475377217,0.773002419655223,0.843635894478915,0.760411558065157,0.831895091115093,0.930202032926264,0.82997402861476,0.78825543610014,0.825821157259416,0.903511827715289,0.898984346168014,0.815075212211397,0.865952671383335,0.975165768004507,0.736190265599631,0.877203840184124,0.860313608506328,0.882431829577932,0.586755650154558,0.808078507453353,0.693534391142803,0.373469429540906,1.05434235972001,1.08349898334914,1.10922332070442,0.835154552826763,0.890854161260593,1.01260161225233,0.873021921627515,0.958358169126968,0.850782321715956,0.558771001193821,0.018950919585293,0.983972648513306,0.846982765068263,0.863629418536649,0.924429380333614,0.889185578592487,0.891174839657618,0.860873625459136,0.854498333242063,0.8093282084024,0.755197066233007,0.994739227425145,0.956460597992702,0.944180071645918,0.907441673312397,0.887499481767965,0.861152034998736,0.864884808437155,0.984596898986754,0.962448160867788,0.954341479234186,0.985961778529471,0.922071417323948,0.98503746015774,0.990514371138063,1.0721102249539,0.839814878215243,0.966624769870143,0.98952403626452,0.944153026389029,0.842819877727945,0.919817456170679,0.90647658981476,0.90607527080313,1.08447749122492,0.987993485778908,0.820779185719277,0.806342095550382,0.818384673814143,0.659708112891876,0.669698457453483,0.899394034724571,0.895743921374889,0.869453457353352,0.826034679163626,0.75247381452729,0.915178408501217,0.815290349263233,0.799849851284778,0.912084800267295,0.866181216270194,0.860199536224608,0.74681939054865,0.957904829869375,0.737167495337881,0.886447462827067,1.03954020259202,0.870519656641696,0.858521264405333,0.897152822515562,0.828045050658519,0.820753788033634,0.967045708678897,0.861982012747775,0.981537812990604,0.776330779462133,0.888143522189172,0.802940686200808,0.763577594853283,0.888525012854398,0.971081262645566,0.823984327550598,0.925756463382294,0.92325047174892,0.98620506507523,0.233331261467244,0.72379363474857,1.18049993161173,1.18556647377897,1.09556596429811,1.0376488111494,1.14031754542745,1.05092042224774,1.06334549514124,1.15339564377051,1.27416876878689,1.22411646931009,1.15297508776782,1.21082189663982,1.14827139290075,1.14568485386407,1.11973097342845,1.12025483480517,1.03970302268647,1.21186704837047,1.07908144879403,0.634106077050412,0.271025818367974,0.396098611585127,0.9448537047336,0.8460442653554,0.981809284195501,0.988761380215435,1.10125954368862,1.15358250004956,1.00468135871194,0.902078055354503,0.853262580108741,0.922062474836296,0.90700369937767,0.905745686790523,0.775505573730476,0.972134638620694,0.920337714332524,0.955921617305541,0.844232797285047,0.908596220795003,0.760478275423232,0.67632096762275,0.910864590024023,0.868458987622889,0.97554344381585,0.809813456926489,0.919247855763899,0.721083679473771,0.900411291923328,0.881717943994993,0.907071698727773,0.726379176593119,0.633569496546344,0.864338453770665,0.909151246584447,0.809130500959506,0.96420978565439,0.780110177085597,0.715603025125015,0.822768882527819,0.69258910967046,0.889932769686852,0.941380283872636,0.809754334714203,0.796902007147013,0.835648003100795,0.710024883993684,42.885217326861,47.4103449517234,47.7382675538911,51.4154854149731,45.6984409115319,49.4173553708597,45.3707044427877,49.3615038951428,58.0751224438122,65.0807092019089,53.8693841635638,48.3962525416077,48.504623118178,58.7468751113537,51.0105788335271,48.1253356704696,53.0382665670143,58.4867707749508,56.1748733648179,49.3959835128676,43.6844034303868,45.2589793701586,111.865430531843,49.5248123687899,87.5580988934342,115.374436941578,49.4545456903777,52.8737635333566,61.1563326127571,48.3319232504215,46.0946487406459,49.7302392143362,54.3151429739349,53.8437428260909,52.1745562712207,57.9315312190012,108.264024363197,49.3506417208904,48.1844756500084,51.5219097888737,53.330567137566,55.9890836938832,45.3660336943317,55.4856707622683,56.3582725267094,61.6129806434718,50.877740730697,50.9498729665338,55.7011436311034,55.4560033941587,47.8717326520629,49.1405955908979,45.778102482787,46.0813913527045,46.8651716244799,53.8814432197829,50.3644656806354,53.5934049183488,47.8689750864628,54.3166370966665,52.5676078032851,62.4862510451343,48.9943102986293,56.9014283671667,48.5778962143638,61.1757369826804,48.6875913362738,61.5182645013164,50.3864135077013,56.2810797464503,55.8920703857501,50.7127261397399,82.5096376343482,54.9552151562763,47.319880219744,49.5523558670099,49.6054826311292,61.8454870035077,57.5430664490873,55.2018068482247,49.7337585246234,49.513980542841,57.0191021239308,54.4256071575063,45.2511928033395,49.8803126297479,46.7024491359834,57.2293522477312,54.4139254258206,48.9169653062896,50.8211390896006,57.8575614791455,57.767751960804,46.8116549229067,43.8760622401667,46.16285019742,46.6360039147554,55.8037159793958,51.3408031633545,45.3823410175567,55.7254154644676,60.4697069016118,53.7907702854512,50.7853202761968,51.5319544184814,52.2783672099762,51.417406582809,70.6638037395403,49.1576517871562,51.6848479713015,49.2587779750694,103.300080002853,130.058984244765,71.425606794438,88.4392083276306,65.5957089321187,60.7526209027933,48.8494445205657,65.1916282040764,66.8980358774712,51.9948388478808,55.845522283956,65.0059878108688,59.0481767744667,66.7438861635056,70.8795263159398,71.5003365129854,55.4002788385101,65.8076500377554,62.5952913406019,68.2226660564634,91.2891985524416,116.993531530923,99.5818327239394,119.066501822843,63.7334557450884,66.8553465097169,57.6521506719986,52.9239118690429,57.3887534614611,60.393604434684,76.0226376985599,56.615294855182,53.005947674492,54.1042592564196,55.5553638774585,47.7923458257793,48.7517392541362,49.124831190932,51.4501860161284,53.7894247921183,49.049465071264,48.389731545827,44.4714623295698,49.9425957102251,51.9556618087653,63.1056437158197,56.0212620233689,54.1649537758951,47.5115533516777,50.5627131592662,52.5733536789137,51.9346540416775,53.4796607968967,55.6816631322462,51.4387414281493,55.2250745930956,49.3000458472502,50.576590253414,51.4516363247435,49.6505534663119,50.5066674428573,54.4983228945232,43.0743089645816,46.8736952171872,44.9775472298856,47.5739776126891,47.5732547328022,48.8965526091206,48.7879062040678
4048,0.829888187375375,0.804745628638832,0.875488966141488,0.734257745377826,0.995325935766488,0.877525774077375,0.893489127520096,0.754813190889911,0.89477912681025,0.919996561693671,0.992696264657678,0.938321107886876,0.896841281990856,0.970191625708458,0.930669813189527,0.990347765701445,0.8992008992726,0.782644706491437,0.92042874594298,0.995597203447703,0.979353449469878,0.981023736173339,0.921061204741317,0.872000649894156,0.973087068542,0.662083613523192,0.875459723919376,0.918228258843153,0.571481872370834,0.796279627474123,0.828774939796589,0.871993892934798,0.773833596012387,0.751585610338327,0.849207312753702,0.830263284615044,0.934229621444051,0.928013573441533,0.790193850255425,0.856310080029561,0.73898072536822,0.653688343819398,0.748543252347277,0.910244051474438,0.707253873346008,0.823986297228995,0.764287256049643,0.685255655972921,0.811288689282493,0.685293846409044,0.828007128289385,0.833012293362424,0.734489405583574,0.765534903286076,0.85727809220024,0.767885364470298,0.865312626167108,0.730957271565051,0.809647980417166,0.80000634612892,0.790155350780334,0.698448037260043,0.841929413436935,0.792999633837118,1.04637161428201,0.871902641765907,0.646328118588877,0.72001948235934,0.762574863187485,0.570794179750446,0.889317687627299,0.745569110488178,0.792329461648065,0.887361792756626,0.8988136489352,0.898950841590287,0.558340858339179,0.789353105634414,0.687243482036937,0.833416397727508,0.815850130662627,0.815020787894286,0.837379789132118,0.866152715573347,0.810903729307482,0.730650279616369,0.748789804635984,0.683007642619056,0.7286815663953,0.817067222855131,0.742962786377906,0.699286108028417,0.842487472010941,0.411736622611808,0.580270089892051,0.661465188469122,0.62504469810756,0.725502343124841,0.684558139150016,0.743213699025441,0.599100975313115,0.715201093310024,0.85467710898111,0.621677981320409,0.885715523891665,0.829907020255495,0.815414159041703,0.595927444587904,0.841632230299422,0.829341537543715,0.934772286176951,0.876894186784928,0.773135450556916,0.79666238374097,0.869271584939885,0.675692063706544,0.759937020089009,0.831569113559159,0.738091493319287,0.735111846344732,0.817390643470941,0.783721063596511,0.822222625838718,0.884968592893729,0.834701067643413,0.773420847032933,0.821371509081712,0.677057675997667,0.905137071239786,0.87822957416893,0.844576837583323,0.750384392155053,0.885973774739044,0.808722023854301,0.717516623774436,0.830007317635434,0.874355495851088,0.827091058325493,0.854706284816399,0.781970916671306,0.890442240507053,0.834759384614395,0.905244787677077,0.775915393863183,0.769076173452104,0.883690607369357,0.996187873151753,0.87189109629016,0.91766938196281,0.972913834264774,0.893853351122381,0.708005565090976,0.79152390677225,0.922531302839703,0.615302622184546,0.769762451727612,0.792804143349485,0.63742794820026,0.808080562820268,0.740585006706167,0.676794706580393,0.604343740195089,0.774860788493492,0.828457293353701,0.822962692969304,0.64657074018467,0.789846239215791,0.762261083326648,0.733824693729571,0.653208218584948,0.658304502959383,0.73721025830477,0.781437301908845,0.816420072889797,0.651730701026932,0.708955353627878,0.689360443675329,0.623316355221517,0.675269302621022,0.736444258632521,95.5096033262145,85.5611218848041,76.0542585957967,79.9849241143297,61.0634912631468,84.9447008875029,97.4279171559894,87.8788353651751,69.1038701420295,71.1199945103087,72.1337146097851,84.6639606417053,93.0432076019556,82.2058235332077,95.0193174666841,77.1873291187249,99.0626097023562,86.4516110951893,87.1485060028614,94.5715311338352,80.4312473370865,92.2790035679587,115.467261256359,98.0741112492176,79.6716987262326,93.0001780237181,79.9209458508011,70.5748903881965,111.312314440045,91.0788533469229,74.3654667061587,70.2314927048234,70.0670107550247,82.6272553918821,84.9696743801698,92.9969665833685,70.1619169146597,57.3292718308526,58.763339420275,72.4711862646731,81.5717562794086,84.7823418078375,85.3439163603136,85.0418885195172,90.2415046427343,99.628231334029,87.3688885280743,83.1591623288539,79.0531224350563,81.6848133977697,92.4665771495391,96.1089962680943,83.8848582193429,92.8175715659052,90.5777629875659,83.8622433001629,91.0572061955325,82.5795927027872,66.6637218897171,72.2932039110012,85.617121238827,81.3335207187923,89.9320420545024,98.1002020029515,91.6480006222829,110.548822142134,90.1686598563829,84.5585878007363,74.6339931215373,89.3405627312199,80.2684135633667,98.787547810485,80.0746039092361,79.6736230789603,73.2229560408827,68.428558591787,91.6790605705037,84.8281953975497,68.7950715458964,81.3909099494304,101.70600741938,86.669956735365,99.5828660406642,131.207702461972,100.808599849179,75.1124434660476,99.0670489620532,108.782515287243,100.550360474072,83.4527741528239,83.7742619866329,60.4000129436077,88.6461498662082,110.949863187443,106.850006948438,86.0640919506362,115.300805470899,112.317278519471,76.695124270714,76.1082539583395,73.083725681189,72.416019445129,88.4232888932637,86.044230394603,82.9586952115483,80.6510679616836,74.7010418259226,79.9346071850763,81.4981523673157,100.139722855649,67.1799648714092,66.4034065483476,80.2200101074361,75.0541566338182,85.3481612222822,76.2026583297702,80.5544683878474,99.848603344586,98.7379238772319,77.1701392912381,94.9291051186345,70.1945276688081,81.8113571784968,74.7376987201954,84.5756160087193,90.5470525613127,90.0104430953226,86.9355917116355,86.7356141688482,90.6557416588739,86.5951995774971,98.1930922407334,83.462132005638,79.6059898097788,83.5132439049655,106.93641696518,72.8996673856278,78.8342910705587,62.9221389636136,88.2053658832291,85.7700666342588,71.8339965886343,67.6949930894918,87.4707915520074,113.585192402745,89.0706129516038,96.7687737780313,80.8455077692413,92.9749424521028,77.4739722440957,99.9242876462696,89.1403991956794,71.6478171588956,77.6571561408547,75.7396738070181,77.5069715375339,82.2623202943876,72.7475637910285,63.4187691095705,82.404536135136,67.1480607609512,102.995665058011,100.359787917087,72.0256876430871,74.3966676922283,89.2981481555063,78.7615911833586,126.029367353131,110.450933526107,102.08836946296,93.7482722122576,98.3438460318354,72.1954513335591,83.9760235856876,66.9794539882309,103.546808400625,91.2236115937134,73.0134511126813,92.7822504414302,77.4339414469636
4126,0.589862797345696,0.690621194316612,0.936533338645057,1.02863836822409,1.01756481833544,1.20760529407347,1.02362867258104,1.27242111495909,1.22827473812296,1.26953299963834,1.1626981045128,1.05027926736378,1.21937135637381,1.3594400450959,1.41858348829381,1.33047152783024,1.44625235295793,1.22153042859191,1.34950280448375,1.39365150356415,1.27486676117971,1.1857961835569,1.26891552065305,1.20189222858013,1.26351965424789,1.20611072263409,1.18590158875657,1.20276349640973,1.23855766679541,1.31645344566237,1.24680559713115,1.26035093710867,1.29395685776815,1.18596371403564,0.664931253278579,1.03758650377963,1.06807953506288,1.22056344489546,1.23024770783395,1.30766269449656,1.20811498879711,1.25670680390296,1.18942051479884,1.20191803334756,1.24621684627555,1.14109753368966,1.31020634681609,1.28524835048569,1.10045662707362,1.13712908475152,1.26438020798208,1.20525174042557,0.892705700845676,1.17822255728298,1.20225762456832,1.07960752000121,1.28171615994512,1.33281787255512,1.09804491276636,0.973982221646824,0.983667675451815,1.01333170791301,1.16060422569241,0.923510873020929,1.08909734151453,0.962255517537043,1.23340399578748,1.21346636661777,0.888783894312282,1.13928076442366,1.11235925359301,1.17386888386981,1.28164750559551,1.10471726267856,1.238022140994,1.2327459643043,0.75601973263425,0.971722322965354,0.914494829313481,0.939731522900916,0.861661219850674,0.619110830076269,0.564162437540774,0.71733587697833,0.684836776518694,0.788497538397606,0.606876610333346,0.769649274103842,0.5565403291418,0.83656821377174,0.701720923122949,0.996786300350218,0.743691813677857,0.559437366047764,0.702081132342622,0.658350857867888,0.691932948813645,0.732971771685448,0.842824744242128,0.905285186008378,0.635483377203969,1.06817764558204,1.19713127250922,1.29781919129871,1.14499392059733,1.32537610475763,1.30164127927272,1.30248777137748,1.35728354573023,1.19938461591679,0.891510856375844,0.759889861644503,1.23044277940478,1.04102186939052,1.11878066098732,1.18099645092483,1.12545036111707,1.14647029746487,1.18527918931682,1.1435229423812,1.06465697711158,1.12890339629377,1.19378480733494,1.15337191665231,1.1135054413436,1.08721513539191,1.14039701815642,1.09624308716503,1.19724032574548,0.8013839853313,0.844248653732462,0.842735847459811,0.792685524804533,0.848095952794158,0.614558253193558,0.686826139918145,0.701161500992325,0.844162939571793,0.879177258051623,0.684939173628326,0.473171636615257,1.07239846788058,0.848746987204695,0.719178923396115,0.84146694007641,0.829461645567531,0.527001732027546,0.696550127466332,0.736302031566995,0.595017514554548,0.733585534324771,0.837126981789853,1.19024860797612,0.891835882073049,1.03538670010312,1.0838971817764,0.854083610851139,0.844844502948199,1.01310369729619,1.13925098145901,1.03746669783755,1.04446724184377,0.930909074706501,1.45500416969528,1.2623137031442,0.571842209970716,1.1304902298724,0.894160447365928,0.905349328908899,1.13555408236614,1.05839497946796,0.813185334404593,0.925773405206001,1.08253590771116,0.861753168002277,0.996038131201762,0.563437019123949,0.944587247658977,1.06486875731417,1.09087551116462,66.7258854617429,98.1025548234871,55.9056050975642,64.5275636031242,93.2388058539284,63.3090801420406,107.335412733491,53.7649369487028,53.7594931388961,64.3158967783833,47.015419786244,77.2145864002786,57.172986536872,49.5229713913834,61.5558749510281,50.8056111013831,53.8552502461626,53.4933382476546,53.871592005457,54.7221334786013,50.1845445634853,50.1734238314758,51.2256201918115,72.3925015717827,79.5147224087258,52.6418499089228,90.5764145081136,58.5256324973612,46.2037270929364,61.7638420040591,47.3519239975936,47.9012952167429,51.4742370779192,61.9946077312914,86.751817292607,119.738712745763,43.1061266910456,46.0850943730226,54.297495090706,69.4359913541135,44.7946973600271,50.0484694228525,46.6287591341501,45.3083670023062,49.0640826240268,54.1243625014211,53.8100333916265,65.1702422142599,108.020032616422,43.0925124120608,45.4870631062377,68.4177571201908,80.9995651629704,52.0040963073471,60.1292156865656,77.6004257214348,63.631013330031,56.5468243328314,50.743405351626,51.8235501995281,81.3974863753493,70.973484533694,57.6862274327083,66.201413534083,82.1341796650953,90.1743409485033,71.7997968591552,56.9806314587982,71.705617953853,80.8956032824041,68.7383044147377,60.0206137544409,54.6226216901969,86.6767643918496,57.6031399823922,59.7967065144861,95.9480140472504,129.984430007407,92.416843972772,100.844364720015,83.9013968382231,52.9865391825427,105.548706651046,106.955963823673,57.7231456379429,58.2210243237772,110.317943869081,99.8231084363469,119.314681538816,61.7952539662198,68.4880939550809,99.4335345594004,82.1706345905891,99.9974026211907,73.7320714209852,97.9802762083381,75.5324073702382,62.5871096898623,69.2431421480403,86.2310931454036,89.6258710359167,49.4954637451395,59.8087778610396,62.0923663978939,77.0557722467857,62.3353581620454,50.7765205768267,52.8741812699293,62.5968431469308,68.7730974492269,86.6928002390267,76.2201091495844,67.4353640059195,83.3121960180178,112.807023385467,67.9028877020548,58.7826881781242,72.4247795244842,64.0179796504764,62.1054285481439,51.4350269648783,77.9982846734686,70.8436386773637,70.3490345290746,64.5845384770803,49.5518633750296,56.9889738005616,64.7162629954187,62.3336711840016,77.9905064067739,69.872943748403,74.5590161629378,71.9237747286724,90.8811574363902,91.3302142016814,109.868936958403,114.155517851555,97.9325906300512,69.4889192460472,61.5081470609479,56.2596788393909,66.7183714248631,76.5924408513918,115.791894597239,99.5225905984244,83.3138216215486,104.259256795141,88.0529023749156,93.1693414600458,132.791858328701,71.5137446451354,104.708693362402,70.1759585894028,75.9015190808035,74.3727732826598,81.8031253121105,87.5690886860306,98.6304112089062,94.2549974153975,63.3620902728365,76.7339511681513,75.3700997386689,86.3219612703648,56.8949314368056,55.6795548769777,108.74970271493,92.0357295125437,75.5968787515224,93.2192613877098,60.1969198243547,96.553862348919,92.9537193873758,108.811817696691,69.7865036695682,74.6956886327701,88.2369344397124,80.0950181902884,60.2320834616904,96.0688267348454,55.9271580522897
4746,0.870071156623872,0.986494990547404,1.0175348596085,0.955273859501849,0.987675735462057,1.10098728978448,0.953685242514274,0.638526831932116,1.1120368524769,0.825187641398458,1.02743641315573,1.07565064449253,0.952299022432442,1.09784188062609,0.843111186328529,0.961423565894559,1.00342975350129,1.00809184299292,1.07294270989982,1.09897161314197,0.842822070632364,1.1516617678677,1.03668836860674,1.09571056040105,1.02023711621939,1.01372283190234,1.0300537919425,1.00019332666338,1.07510708613292,0.872645870271195,1.13323982228848,0.289165361211087,0.626443539779931,1.18573174455544,1.117381259054,1.08304554367276,0.881415704653714,1.05314386349285,0.925690671018006,1.145323341344,1.00562540067793,0.9464154989436,0.759159547676616,0.866164189790857,0.905293970611218,1.08127844480696,1.06045098624705,0.849906940756647,1.14900904720379,1.04300416473675,1.2215651233049,0.930606846422714,0.743248765436874,0.949514190791627,1.03909889937491,0.912156928402097,1.16938674443933,0.942340420442863,1.01216837230746,0.70391201534002,1.00895624040589,0.871960677464181,1.0424407354201,0.780458238469247,1.08929127407521,1.01480988604123,0.741943029551471,0.968851028581324,0.976346145205929,1.04824365372828,1.14259873720413,1.068333393246,0.822684333284287,1.03218156725367,1.06803905840447,1.02344680407489,1.02046527242761,0.089852867918204,0.306304058277162,0.982116199266309,0.794778122257751,1.07729507892636,0.751246247675688,1.08453241310827,0.955640266486928,0.991755607550725,0.897491275203272,1.03684106182317,0.73065231939847,1.00435157864737,1.0159325045022,1.02535811148991,1.06503977486378,0.846693986236144,1.11732899087178,0.95876828306861,0.864629491215081,0.520520891303733,0.911182769571368,1.03224360813582,0.924611615837071,1.02051388505607,1.05863268046094,1.02985743449804,1.08401763992487,0.897195444759695,0.901540606458691,1.14813067311083,1.03205597006961,1.00700999982959,1.07007668114207,1.04435070327711,0.696628072029471,1.10649542889591,0.827008044386174,1.06968727904771,1.06546066756458,0.955648066381567,0.983542349568792,0.832813844005967,0.953967541579597,1.03475993959515,1.03525299487484,1.05251350871494,0.555810641641673,0.818774494292389,0.949506872371902,0.959618338768927,1.18857687144621,0.760333969771859,1.12202514049417,1.01350490769979,1.11870717569706,0.745926332828159,1.02330941655437,1.07269813557626,1.02154150214118,1.19470126874954,0.959234270750503,0.97177374692098,0.845760955879963,0.838951883777391,0.841605656309309,0.928015445168625,1.05930151081345,0.883949195237988,1.01164521337303,1.01507865816039,1.11257221167223,0.850869736542735,1.10277855576724,1.00920500110942,1.00896418696134,0.779299723141731,0.987631136135721,1.19492282783983,0.900225481374689,0.967035645912816,1.07449612314534,0.787906192132054,1.03541729016989,1.11768527825463,1.01923761158181,0.839911808832672,1.1946269419077,1.03086435245264,1.01420839579479,1.11782913546691,1.07466638566703,1.10816238653115,1.0305882289721,1.12390093745777,1.03030006552496,1.03608847940508,1.07820131310033,1.06086588075239,1.13702682156983,1.07784607722001,1.14471156949584,1.22185514869863,76.8076198663715,90.9990502167891,97.3009913892899,94.3719740416655,81.8347300645795,53.9530631906453,75.7907959173955,120.822651924365,69.0956315774006,71.5258093199884,78.1927192029778,93.8028714788821,75.0119979269088,77.5372679437821,85.6309837270907,117.814369082703,108.227182381874,107.878214321708,72.8738242595863,109.825799277932,65.1074381591433,116.292945306431,75.4307388769504,84.9924791811086,69.2516111899597,82.3802532367286,66.2227788876935,85.1513169132206,76.3839779154402,85.7022800380241,50.6701511890061,112.734024508282,112.095248923913,101.712478533624,70.5717797895157,73.4131208228735,98.974362184391,56.875329026255,111.199852127275,108.746807415687,72.3290933955167,81.5906690290507,91.7673446820668,84.0701930339559,60.2070753353009,66.7023731927073,69.9596236619107,58.6122443933149,69.5972465712364,75.6231514921469,88.9865500522307,85.400280401697,78.481551995203,99.7048141667364,71.5084072175898,61.832147598819,61.5650528581706,53.8488655046052,57.1765866667752,97.8765746714786,76.3022649027327,65.4333429917742,84.4413363071642,76.9795853005041,70.9336234411208,117.103154069989,112.779894546329,83.1650222862519,80.9130507641504,69.8741556732561,84.1179507191923,76.9770038812595,67.0782425390932,70.1637392378349,69.1670713278272,72.5714453457529,58.8671027231969,125.032764389147,126.453104380427,135.953689101881,101.506606775995,80.6493345134143,130.776108911315,60.4185637153786,73.3623002034377,61.4860681083789,66.8449101519941,59.9615001144286,99.7410816858216,58.9498219921772,129.000546264316,77.6498475829452,70.0410517066568,94.2633559959714,68.0593343959131,66.0070329365998,77.6583111140148,96.4251853662963,98.9243949576309,99.3763524009247,98.7926573575028,78.1750757062997,70.3787937167059,89.2161862922,308.368190395551,63.1695100449741,55.9365380390237,66.6013019382144,62.8298171913334,62.2413650522704,58.712929421982,82.6943414386388,111.812018646615,116.947748618372,128.071755173411,62.6995471601332,91.8774572599823,62.636669394438,62.6841333208181,118.536034969525,85.3452869815425,87.4315868362451,69.3190582163293,73.9288501251376,102.903433788507,78.4807501913291,73.664143828852,105.935198754233,64.1115468459979,128.529670617391,82.9610350883593,63.087497678779,58.6387722638358,80.3208592686651,58.9581836016226,56.0753821612938,71.5058297237666,72.4556470949751,54.4079353685682,92.0399586534545,70.3755581544455,69.4909256606438,93.4992861491587,61.5624629930226,70.6378021419627,64.6372463543133,62.555848177327,71.972560381878,65.5488714406523,69.8551166734459,67.1667005486021,67.810088181027,57.0271934071219,57.1429153959704,111.500219303706,87.0593831089012,60.4920564991317,69.8251486328295,60.9217818027432,112.827070899241,101.521629948864,85.0336776899424,63.0217071862026,63.338724638618,80.9037211290521,82.4068333142402,102.763538418053,66.435750654289,54.0935559738255,62.3726732582886,63.9616489422687,70.4373745091301,58.2597553950617,58.2271760169413,57.6128751949215,54.4395535877833,68.9519124694817,54.192543519395,54.297541175513,60.6759030096692
4908,0.376360790995726,0.489194586297402,0.40474584202211,0.453892759099861,0.374634250505945,0.488659449375623,0.435442757877802,0.558148113042129,0.422478793334052,0.402297017143831,0.40318108869761,0.379934237102272,0.44874980384153,0.41441633970124,0.428234754943145,0.726639866226181,0.567403311418754,0.497373369164349,0.409940618428398,0.503165651103567,0.476471307286991,0.409389090553456,0.537981628870726,0.386819545999774,0.439150386649057,0.503701138601159,0.492930541507297,0.464924646076699,0.444209381112194,0.464782979828865,0.417429350140621,0.443993926803772,0.469372240458058,0.438804696920472,0.463746084284888,0.501509252851042,0.534348077944546,0.449078692941478,0.442746758188858,0.506342545038103,0.53833891308138,0.514017764324822,0.567965915059889,0.523577491987398,0.522941269904864,0.644406428452008,0.635289777775738,0.500743882288032,0.539213350769908,0.462746103531935,0.490816447434936,0.510593127606801,0.45640901367654,0.424982008396337,0.464549206427114,0.4671924144603,0.495271105280096,0.434133383464764,0.431099159370389,0.380462617447638,0.410030109493718,0.529361463768902,0.497309238038375,0.452600699804451,0.433293828262715,0.4808047443766,0.475395637893641,0.397186225571164,0.429154169032019,0.489982935044268,0.488993824269855,0.424104705545167,0.433894512101109,0.484472950807035,0.437096526756452,0.4038188470735,0.494605757979933,0.456451201218288,0.513499396058669,0.403255922083895,0.460850681808051,0.409041420998823,0.426846835103266,0.483689439711288,0.468249888331485,0.471603985061289,0.386684316522337,0.392143840983881,0.407433572393262,0.41106066198832,0.390445887503795,0.565406446500944,0.486748608051164,0.488309531443247,0.383750476923499,0.383938908221071,0.568557275284334,0.403524556249828,0.397066049021754,0.515468761997917,0.524925544291975,0.405749558409878,0.39009084571452,0.4162375659927,0.396346297969499,0.537056990369574,0.453291342783066,0.461381892295754,0.488179718439403,0.489583546258987,0.507447832423274,0.542901982459216,0.510300796697338,0.493739713535348,0.441941875813156,0.482121713433127,0.492581208149402,0.497131769314937,0.533538714457635,0.477728131164473,0.45046831212672,0.69332243775032,0.71478328128303,0.548818249214164,0.441657137542942,0.537304838271293,0.525214883657748,0.482464546573413,0.605662323196701,0.468060125080421,0.461422326534145,0.445742708085085,0.460557232794225,0.498511616290577,0.490039049752163,0.565125114768128,0.509600198709877,0.490709432441333,0.463104726917631,0.56260199607489,0.442163385444557,0.439641776418713,0.456510062938194,0.435497928002116,0.427930071654717,0.422343312260723,0.447863687250835,0.459437791314982,0.455250137325865,0.48773130782095,0.449651857422198,0.455247699653167,0.463780879067016,0.445847804741679,0.431149943072542,0.461019191704263,0.437521861856858,0.494118137495796,0.475510880009255,0.455039384022346,0.481670670668177,0.488421097888178,0.450220031264216,0.456203928651385,0.439135444051178,0.429244031567589,0.481591644959247,0.509017004238868,0.493231229357367,0.577327830565406,0.468103405942926,0.421641094257956,0.677580622242039,0.549002584364134,0.367422266638346,0.529027520048874,0.449364244646465,0.491170147019482,0.436376074335222,0.383268145609857,44.1796258612449,45.5153599022538,44.3260826232356,43.7655120676969,44.0349578360531,48.0617271842496,46.9273605694964,47.4841371814681,44.4830547746401,43.965524149071,44.2923664109363,44.0871018120015,47.6402582491528,48.7063961866397,46.3290956873465,86.5099323261247,47.631880966162,45.2287597865597,43.7448145615159,45.0068927809963,44.3548183967662,44.3608118143961,44.2635029029356,45.0178452796355,44.1695807730515,45.2318141493078,44.0486866731966,44.5402842679907,44.5306927304714,44.3385737157863,44.0245407782961,44.7763472152796,44.6180161798426,43.4106210359913,43.4008940469591,45.7522042419887,45.4465440874848,45.0168304393014,45.4035619366587,45.6013311366255,46.6375468596333,46.0219245527625,49.2226194857711,47.0522466556668,45.40659519495,46.9994341360209,52.7221319879542,54.4804388680583,57.862338181254,48.2295446028026,50.3978835574382,54.1173995035589,51.341114803018,49.0421690564283,45.2076291132037,47.9841672332588,45.8623577437917,44.4979891690426,44.6885254821629,44.3168008044451,47.4679085629502,54.5014070617448,49.3759047961533,46.083781528551,44.2769533156279,45.7801864323779,46.1880251354669,44.2010628138994,45.3466931167815,48.9897761484888,47.2353947735959,47.8262291444632,45.5506241075645,45.1721921685366,45.3611936153476,46.0150695100748,47.1406873448304,46.6837119793138,47.1710524674563,45.7111066711679,44.411362871557,43.9555622984222,51.2990024073531,44.8241974478144,56.2820335690927,46.6419620409793,44.9961981896194,44.623222803341,47.4695387220105,49.8428635179639,44.0957299158404,47.7454125965261,45.1896727011217,46.6447139252274,44.206379512872,44.8758718284415,53.7011697868995,45.8276503998856,46.8098452343957,54.0924216196677,47.4856723293581,45.2180839707394,49.4436282430179,44.7132332782486,47.8948406029553,67.7616041253233,53.8056721295074,49.7088217342183,49.4821063831214,49.9855687246631,47.1402313965777,45.7918212863223,45.0056365388918,46.4761156446083,45.3368122047659,46.7721895662965,47.2670090595151,45.5075655701722,47.773147702892,44.1673467759513,44.963782605445,77.6149383398854,55.5984357185933,45.4575153392623,43.612391482362,45.3631054253284,43.9161432126047,44.7023084388437,53.837395315362,45.1761237435125,45.2014782805709,44.7366640236028,44.697099190563,44.1816912163942,46.0829955431595,51.3967799017973,49.4489088269983,47.1995313671827,48.2601778042485,43.999031209913,47.4711277960769,47.5494663453636,43.8022033677969,45.5353449913811,44.0858914082264,44.7304544004112,46.0690761327051,43.1974865784914,44.1511673427803,46.3493049171438,44.6757826872177,43.4893474285992,43.2721541116031,43.9024468801769,44.8901509146969,44.1123473128722,43.8956397283891,45.5581928240229,48.5682250555591,44.436402172261,47.5879721380113,44.4096374401037,47.9776143756781,47.1143282445986,44.8516440674588,43.8810023796238,44.2548581483018,44.2786688633819,49.16261153671,52.8588493775952,44.4294828555667,46.8333859995182,53.0787003794837,91.6092392193094,44.9385253745802,51.9415014260327,51.8941515070042,45.996501924852,50.1166345027647,51.7574068299162
4936,0.376650860548232,0.422267244352633,0.44005678558472,0.401309291039057,0.493271056727808,0.451417956819974,0.509979869141579,0.424088419911146,0.402828084505696,0.467768111720588,0.438702309996542,0.442636568155703,0.38131377284706,0.416839591244047,0.419838557066384,0.412881057199546,0.419887017571432,0.415024356664778,0.406053426353077,0.459983734152705,0.436811238756719,0.400088231142289,0.354219640142596,0.460637341603513,0.37885990011099,0.429229941347146,0.44477194083089,0.440706419551326,0.484518868074831,0.431504923573601,0.412646821022955,0.438605955006162,0.544551493447999,0.477376381454047,0.466488908911122,0.464925738718684,0.403365556182365,0.439910638859159,0.388390817759138,0.421546768918409,0.458530630334681,0.474085322451406,0.453791347030501,0.42146480103966,0.446707470567174,0.385261554294652,0.404314520484281,0.470684220783566,0.45905803273641,0.380772495517793,0.395769217783185,0.420052219878891,0.410796619576262,0.446609183495713,0.449505997712148,0.439171279656158,0.402828739973697,0.466791992216651,0.396507968441203,0.467532410740398,0.458922520728246,0.439979111105133,0.48276229081242,0.4007221241088,0.464268547221489,0.467666736080009,0.471599770934697,0.456288721527282,0.402337364456812,0.413676933623655,0.428870103891227,0.421992070698418,0.445907361092704,0.433066063937786,0.419183629554133,0.435328365708548,0.444182079435664,0.445925973126506,0.439521695660174,0.478684937054086,0.399036522667461,0.423540682535352,0.435939102618737,0.364304557364633,0.430419535073641,0.439745247736465,0.405009056509424,0.463488177960137,0.440897159561625,0.440940493419229,0.377246214866981,0.433677773250604,0.494774489335266,0.405224677767132,0.422076961461023,0.453215518514464,0.441449524438793,0.452717008040273,0.469313266711937,0.379112575826627,0.393078704311653,0.410589097308282,0.354934956061659,0.362363243103257,0.377600785963658,0.433604929423667,0.423766927513643,0.404919133100257,0.383674748435989,0.341361490376074,0.401830127189453,0.448735794573335,0.347005441350461,0.338903658515019,0.431754640266625,0.390876673752004,0.428397659756533,0.37225870592743,0.406403281368529,0.460401878263026,0.339087277691621,0.42926557104444,0.376532981736321,0.344939224864703,0.372661511654789,0.388192856186992,0.398234318755061,0.379024816082269,0.414446806449958,0.401979754081601,0.346994473518642,0.381658186493441,0.348888684360314,0.353009953498527,0.385944100739378,0.366137880764793,0.334065286148193,0.369798112853166,0.420899747959795,0.319547957737137,0.419517519120472,0.440885279519778,0.416793631536422,0.385950288426315,0.420014214448647,0.386959541107647,0.416814662571697,0.388044773470601,0.415973524168673,0.342852815892101,0.408724505619134,0.369111584669813,0.383104991982818,0.395625038236865,0.515112795162644,0.459251584172597,0.48816193010246,0.463454453731642,0.409521561625593,0.415757209820669,0.438111925374725,0.456454660262124,0.443746192345707,0.394285132474149,0.471232357052843,0.601051141710487,0.6356455312785,0.597777956546813,0.550647652305256,0.607703506581189,0.637753081171789,0.662351209889139,0.558103830609693,0.50384823447906,0.51362944214115,0.554284905444447,0.524680608003266,0.64278335354863,0.647057080152393,0.391329830567283,60.0735677674381,65.8374740705369,75.6727838598766,66.3125573287884,127.433255571475,59.8440662099941,65.5672974728238,71.605273109467,57.3456634679368,61.3898866137843,98.8144660809105,60.5692904475442,58.0263652705034,64.4337284327121,59.4426366976825,65.2265349496144,64.8771193285156,67.6362237933042,63.7943185479236,67.1535881093387,63.9471577142243,67.5478497536975,54.5391718464346,70.8708310661744,72.8326827377511,66.8191525862462,61.8853003887792,66.2555089415554,65.5423919534956,56.0849468890775,58.8241023818853,55.3444567185621,57.5437119351743,71.6647277814949,86.7633205588643,79.1327133868634,53.455489337938,59.626321500447,59.7697290948401,76.9761908300989,67.0290506309105,66.8559951072733,88.6144937456121,72.2817812093266,64.044646501758,65.4192032388074,61.1895653897606,94.3618247463293,75.2892275327758,91.003699520557,74.5660681882525,69.3025218551583,63.4364189203036,70.4317155521565,54.2049119093803,65.0390328724937,81.9243456132902,74.5634622273053,74.788404688333,77.5532188273588,71.8078681586902,77.8880507764137,74.395231311475,62.5265872873749,75.3196475003333,63.8229464738149,68.7043427241877,72.8905941729321,83.5532257686061,60.418859277096,72.0256533457615,68.4978956289092,59.5710927527633,72.6130058518913,74.4755256566865,68.0272474886946,73.5053176228532,55.9781890982965,58.4323212145902,89.7248486046039,55.4802812051801,62.3171705576114,58.6505334591723,81.1197809622379,70.4983201027739,99.1907123895457,58.9714546669342,66.979895176001,60.7168426905823,84.6838523424374,64.3710068682474,60.4290619347116,70.1713209819404,59.0158348493691,59.6409647080471,67.4539695565928,74.7227473757339,66.4618016625556,85.1485155258424,68.4810220149773,58.5492735272131,70.4885376297155,82.6125858581948,111.299176175748,104.995453771491,79.1478656016598,62.2676309939718,102.874800072898,62.8674038231732,58.6062731420543,70.6062119133371,80.986628499483,55.3075664479725,60.4966797460796,59.4002337227087,58.4049565469426,60.8667949936591,52.5326414730069,57.1751691300221,69.6022327112357,83.1756754597248,67.8566969731323,72.0174166286385,62.2106128837,63.7504698790393,65.3683699631782,53.6930349783401,76.9964400894743,64.7827492141163,51.1766006683413,69.8685975274566,99.1028048575976,95.1031368395606,77.4334570475179,60.730224366166,61.8245899915171,75.6990715028362,98.7291543505812,75.2882696966904,64.1180292600506,59.3269243279157,86.7045266272319,83.5217713795557,78.3852991879078,58.1734012411447,66.4785743144988,83.9432121582026,56.4799945860718,59.7830090481202,79.4603151163423,74.3674040665983,58.0635311740065,59.080493633757,88.8622024319977,98.3760963087622,70.0091970119149,65.2366278888733,56.5056737233273,54.1244945103963,66.0019828069589,54.4165033430982,65.7648516348898,55.436207251409,77.8902577345162,66.8293443592333,78.1717806624036,62.8785027315823,68.4931961465376,98.0667932636251,54.4451426538905,78.421824917316,65.8553786339844,88.6895256764281,57.7554929929118,70.0574341931711,56.6516118940737,76.2841256198918,66.5866172066367,57.719894810826,89.9285760984126
5091,0.514469812039317,0.448060343561898,0.608852545804771,0.487193614760989,0.473114622195744,0.632057985330457,0.582264792627632,0.5396725939267,0.532086831377713,0.563491039889341,0.522024027088259,0.624794945406803,0.567827350033997,0.553860275125693,0.51979471808161,0.441647324512008,0.449118300827785,0.548947015068323,0.468376639278081,0.511369834967483,0.567567838634426,0.432464347261353,0.555774075122794,0.518275630472686,0.541532594777067,0.565877207770142,0.492422558848435,0.547509706601786,0.476241887163468,0.45907446427053,0.464288361443096,0.574558587095634,0.62320892252034,0.692672692084613,0.440808400375447,0.408655796252659,0.538660189054483,0.532596997852862,0.541179334585056,0.62667894439686,0.589039297903597,0.584087694602617,0.619809725964208,0.507003859478598,0.440341410071067,0.604181787787941,0.609453975032087,0.540423452148511,0.495019516733334,0.569184380268182,0.551317817980372,0.379336644915357,0.485196523728934,0.45181208931169,0.513630629618039,0.383568338902055,0.659595692100368,0.543104823977498,0.540080766290036,0.482307260648107,0.623886642416101,0.621466759406359,0.555030209825734,0.527223348500922,0.68236093607802,0.510562976757312,0.684110086869959,0.481627438898469,0.609506106762968,0.310144872949112,0.583711958297106,0.501356000804704,0.599448072534568,0.130212394028801,0.30195755537986,0.481132350154198,0.601968853307693,0.592518978622585,0.275658331390615,0.353494632170618,0.63012553823726,0.612442409388255,0.612174414837713,0.696398578978128,0.703607071088697,0.584609614810979,0.662946738764351,0.565424710824785,0.672149244204192,0.634442436605462,0.675950365030857,0.546596503464582,0.579452209302759,0.63287339351844,0.704798509560422,0.614959566455363,0.608149183295996,0.580876029778296,0.675515838132848,0.575925624916619,0.486272322998906,0.596979104252931,0.635555620828575,0.493984801238706,0.555205627949901,0.527564220197102,0.434131009339697,0.523499830673682,0.700111004021104,0.48092332005828,0.548246156415124,0.588916363166641,0.530141457129512,0.332372285028237,0.695659068486953,0.1509536525755,0.689387528662031,0.570760676075216,0.703114605271931,0.573759139054918,0.666153813296569,0.560221213902935,0.62940443050967,0.661304653549459,0.571145690093405,0.655245536780793,0.204250072255879,0.292604403222264,0.558779451934833,0.516949049336113,0.538799582661267,0.688482785437072,0.605615582017104,0.612146995624114,0.619823981855595,0.582377921596328,0.627298116702021,0.652375064645588,0.589466991880461,0.630611989366205,0.655246896766249,0.698605585986081,0.687147771199232,0.577966611945276,0.659617520605072,0.606843123449537,0.54949966958523,0.500993241121126,0.695938948430262,0.645738390980749,0.595171252092644,0.628887875362072,0.514157440080519,0.539473029587514,0.688461809008366,0.616101498471947,0.660443337247876,0.451155866469793,0.657498341257471,0.666007283266553,0.599264972096134,0.561604937441363,0.480678696805775,0.698716319574991,0.689765817350941,0.611138146350169,0.547188100611388,0.657277227182627,0.677783328488016,0.54583753020966,0.514816890620598,0.575649565784841,0.664683258648884,0.619936285166441,0.569112972863703,0.623001875115578,0.667270028175574,0.606722632537384,0.667213405316512,0.666662106136485,77.8269603513761,55.3265079781222,83.314417798849,67.1714359099658,49.9825544802036,78.1373035277877,84.57368294313,75.0992162608223,64.9670852072896,75.2397432258729,65.4589398858429,69.885000726013,93.7780672469902,115.487634294415,124.107305081534,76.6313992623293,71.3986304283305,67.4758525162883,99.0098888691917,59.6663562874332,80.8670670323306,115.296712228215,81.0430853579336,71.7838113258282,104.528266689771,160.780455112621,78.7602032542846,109.414050908743,65.6176093617836,62.4103787564913,64.7244094769681,66.9622071364361,96.793191553357,77.9720979965172,110.4202037963,113.063298100415,92.0200838227682,89.1264808292139,96.4005221085114,73.5581709921464,65.7053024509678,66.6374563640488,75.5158543321451,78.3990792846244,89.8155441950065,67.9754409055062,68.1225430844378,70.9538835157244,82.5321633865493,72.3227331795415,80.6215206233642,113.571614813447,97.4844621621483,95.5642030564415,97.3916599761602,48.8614499088857,80.6823561860685,51.0041263877417,71.9404982100004,61.4604337998883,64.1601112493268,57.524920171962,78.4458605617238,84.5859730362241,73.8692936716269,70.3624115668493,97.9066280686553,121.49961440449,119.068271465067,122.832963658533,94.747442614958,81.3404977853884,99.019653399732,129.907596847452,124.329153998777,135.839969482995,83.9064193471238,57.5218925109309,112.968019894148,129.925923917586,111.35660002297,77.4192279161012,86.9470086618206,84.449288784135,88.9816056536663,94.6128857292458,98.7485049637157,97.8255947079763,92.8830532157616,85.1035581335655,96.0440146323135,88.5971275793518,107.994037720563,69.2999131800289,104.16494747981,121.814751444115,112.554189504946,91.2327577482402,83.1696853814849,87.7513884945445,83.5322601692712,77.8306666382648,74.696988357959,70.0283918815865,70.2774838342757,58.2627374791511,64.6068939621507,85.8914907421233,85.2753651403729,96.3546214993604,77.4899046569334,77.6024816495833,62.5690909562052,122.171977798971,124.5681629028,123.735323482045,112.23804853743,103.561079140017,120.509379213293,120.252664599797,109.008865010787,99.0433495926156,110.099236106805,98.1678597287753,113.580737782441,105.056045198762,131.018280159109,130.131286405928,79.8226009502901,67.0553175518635,106.125291424193,110.034916772892,97.4837646896867,90.6328912097746,88.0485180995929,81.1622872253735,90.9641845045868,98.0445520244964,113.956816965159,88.7983957408428,109.246128066163,118.82000451092,122.111294338178,95.7519388028765,96.7673346580734,88.0216426483764,96.0914394356562,98.8972056173526,99.6671757457416,86.1924183989834,82.7300129723355,77.5913013062846,77.9714993452163,86.0960922412997,72.5850127862236,83.7336328117364,79.6322637588274,69.2365029303655,81.0526687330605,113.646824352615,87.6729737880708,80.4830536843388,80.8248845922353,97.7216047232581,94.2647741673377,91.6219497344754,87.4280762608383,85.7271163994933,70.4343357336737,86.8777865936161,82.3687508261631,88.7409684888815,78.5327397947528,80.2199144855028,89.0916141078495,91.1951477570751,86.6361038884627,103.337375748059,103.816103374836,100.500201061119
5121,0.760572272892995,0.570267150555834,0.499880975031532,0.509944510989494,0.592926118775753,0.826696175688249,0.535602005014256,0.493905781979314,0.543401246500588,0.466963540742026,0.641178894584161,0.623374423018102,0.736325471449353,0.016124942719554,0.091128774020757,0.211328464089735,0.922807642075089,0.782141940946388,0.932789795134094,0.264476422429487,0.185227884708198,0.356056442286077,0.947057068688585,0.034102210596864,0.134074474564231,0.339459650881042,0.667129855778334,0.66539427263328,0.543308208990515,0.742923052054137,0.437217721719221,0.583692657748365,0.440840960553633,0.741448632101466,0.443674404746783,0.428651599445448,0.410618245632654,0.449921253116817,0.522791199721231,0.474245268212378,0.554990180240074,0.420154683807279,0.554344496533857,0.489245704607077,0.484104121938355,0.544276232149389,0.525113475878911,0.505749805643379,0.884080888888957,0.909744176432787,0.642689238321882,0.481281409741995,0.448110788437753,0.466258926632683,0.478440345073831,0.403747445335773,0.451293106644062,0.38791716515637,0.503565684889176,0.551859073672052,0.434169527373922,0.392153464860261,0.417871180059438,0.451020182243596,0.436975614302157,0.440109411751317,0.491498052649825,0.406588818128254,0.394616873633733,0.441611821044292,0.404080471428059,0.438971096226637,0.40845725694779,0.439849946185651,0.418722619075281,0.45423162131719,0.392679961470617,0.419158594424335,0.415887378350725,0.455463977548677,0.430895985914544,0.428829199985194,0.409418645933841,0.455861322386703,0.454428499776167,0.462342353820502,0.46363531457979,0.431733490063668,0.462466544112379,0.402245173419791,0.394465335650847,0.436388629969629,0.462130219235748,0.403723569756056,0.430380056863074,0.410776136927556,0.412990105854789,0.403740604847116,0.435473143493655,0.436309139572799,0.448072132870504,0.466643659001418,0.439104497462338,0.444664465376297,0.402542502033119,0.417528096737925,0.438672009069568,0.477321270035811,0.433005800181166,0.422721749708929,0.451111303540203,0.456785186972064,0.400150146411008,0.417954720645403,0.413432686260289,0.445558001077574,0.431867337390936,0.438282740819055,0.437179505560075,0.409650319097097,0.409591227405887,0.441518869229286,0.441429976098358,0.449418927419363,0.418915625129819,0.451436974481007,0.440867230967392,0.414316011103214,0.644320421429635,0.907747204641946,0.603279554458629,0.474339066273482,0.481887965936069,0.468106740140391,0.482335867322416,0.488294127242118,0.482192427769458,0.405380445507818,0.470339568511076,0.454269412649064,0.461749662527484,0.456758851115212,0.539248097803595,0.445310619102935,0.475316147237444,0.507140917005176,0.662227406659269,0.464391635673548,0.44941958139508,0.449936842119839,0.480860170880879,0.321917955759356,0.414787083842546,0.176558810198214,0.328217341995671,1.17373523811392,1.05644224669848,1.21302263984585,1.32404349540961,1.33768306213266,1.32813465951409,1.19372534222958,1.19012739750388,0.062528969004092,0.265879159847755,0.564418463186954,0.644313390179879,0.511006659569797,0.48745314798231,0.508656211614496,0.516047062818917,0.696730295639289,0.559213462914909,0.711869894144263,0.531887671489054,0.554037843198746,0.532282056616713,0.513740882389611,0.434850937782701,0.473158812901401,68.6705589390698,53.9706702556241,54.3419005799583,49.8135565413236,49.0285789205339,65.824110038294,52.5519148136519,48.2515299801902,48.9112524620132,58.1850173348883,79.7665947555221,118.948534120731,132.087585392712,122.436685947287,119.10395110381,99.4884338602486,95.6933856726006,98.7586027327679,114.184824339214,120.61080346035,120.345260906828,127.54754257874,103.003911596656,124.646582287809,139.15916249111,116.096853054252,99.1517407519286,59.2762150375335,65.3445281942389,104.776757770621,62.3640279429029,70.7147119316703,50.5116919944202,82.8275104224532,60.4558639616268,52.5886553542973,61.7148230691104,48.5997289175116,58.2915573732064,61.1110188121601,67.1012136760707,47.0440736086838,61.7035518839367,59.1814396100943,48.791278854239,56.7966067944479,71.7080989158897,63.4944399430917,99.27187693357,86.442769985103,60.0588793971842,59.9672785681302,61.4130150277743,48.3410002410972,55.342518046372,67.3706791949895,51.9481284902623,56.7792508335386,50.3708659156372,52.7472012404725,59.353426448187,73.0764028215762,48.5942425086124,47.9969844351619,49.6782721232348,55.6257317435462,63.7590242533899,60.9595535137855,58.7795003866217,58.1748263512556,63.6857794998288,57.6368499024339,54.786416777416,60.0026410103777,68.7912826018889,47.7331531626836,61.2554757241024,59.2298534147753,55.2147611563359,56.9290779286856,60.68197748672,68.2020897849114,57.3286809007506,58.7157023897598,63.4798691980795,57.8149866283022,52.1897070254616,58.1862509273363,48.6529474244703,58.8445287985713,73.1909436241215,50.6624683097108,65.8766740213393,61.7902164112975,56.5608454291389,61.4407760227739,62.7708794758534,47.5426924997174,48.0150348150895,53.383409092773,56.1650745893769,53.0762882983828,47.7046828531747,51.4067916714956,71.6948463296451,56.0085851548361,54.2719469475968,52.7650588510327,54.1020257078319,47.9453906003437,61.5175962069817,48.7374952537282,56.5242892210727,55.2363990212596,49.0841261586012,48.8293365066245,47.9839877306145,57.7213085500439,54.0560470515747,61.9821308913304,46.81870086794,56.0426678251887,59.315946901254,60.8559086027016,70.146268330099,56.2638061146109,62.4266172198092,61.2351392583389,66.6139348138041,88.3296693829889,55.3350506658327,64.4362725632224,64.6980244338231,61.9802546371267,48.7539912026827,63.5261183589,57.4365639210859,64.3484814765251,56.2455200198276,54.4698700111643,49.5062598311094,60.1038756151079,71.8417460892628,62.8367104474878,53.208776669179,52.85607411678,75.6306725709986,60.7686071642744,49.0382490020849,57.8736720223378,57.3541597396393,99.8315962780707,109.04269418424,126.672012947269,125.405449129312,86.6050063598674,98.0052292960554,77.2936359901097,67.7462206534738,71.082758758583,68.7441439733357,82.2102301479554,69.8495234928393,124.957282523794,124.969413165913,70.7885523744855,61.0584472411525,55.8829547985682,60.9414653606637,48.1441806850383,63.2884575121706,65.4783598274904,66.7890449885354,93.3304873343833,50.7532546063345,53.6171580766536,74.3081926163411,61.9114333397229,71.3986824576095,70.9807074403738
5261,1.04786926577332,0.941400796771424,1.06741023746394,0.988834042504891,1.10397041527295,1.06906476106787,0.993922634514115,0.991004290209479,0.838503579264729,1.03754698567737,0.865424703099284,0.883390364829664,1.0669343700666,0.935575398686097,0.994848648925418,0.902155344622968,1.08961677375494,0.958784283765513,0.952178021799621,0.940033076530816,1.17390515544808,1.0299514914028,0.838227492184028,1.09017473052287,0.984832860183093,1.07696814415174,1.0325097119386,1.00904885865387,1.09552397808193,0.976355237099515,0.903080621606831,0.93095486515438,0.905498702759637,0.989451895100509,0.946664550449782,0.903946472625651,0.800029654816078,0.840598807478441,0.859152290913288,0.883933375362125,0.810777649277289,1.06045621606225,1.042973765221,0.825277764052486,1.0386831268765,0.876710835907709,1.10509381049143,0.957048244465448,1.06400138543744,0.964092512187824,0.837860234311632,0.94970255747541,0.965874048535678,0.890100551126866,0.946133126221461,1.0286652452056,1.03649056873303,0.951754594630464,0.98456107818832,0.887830929769074,0.807897303786549,1.07295109232675,0.986061219304878,0.84892434797896,0.818206144186508,0.862178074443899,0.922147642878434,0.904162707101773,1.03521051989049,0.906191081492584,0.785407814137415,1.06819250472443,0.941537725044445,0.930562260999755,0.992717927942525,0.982861232151739,1.01483910667167,1.01363466685117,0.898294689163159,0.930660289443296,0.833772877798901,0.848944646524161,0.94788660143742,0.935817982497899,0.771448744496712,0.759654587658111,0.838350732296649,0.961018245504062,0.676482294321409,0.815828536631285,0.720091201876528,0.879905272711965,0.896465989770891,0.740306529415768,0.811210611086168,0.939067727772584,1.00734395314179,0.846713795824676,0.938758723167684,0.939811080230196,0.865344115228932,0.881699398697985,0.874366636912204,1.01474940254201,0.953423710916377,0.81196019343231,0.620996955938201,1.012477279263,0.913458136268547,0.885533604817286,0.948016118177711,0.99196220468236,0.989993572354544,0.874573234473667,0.940636363326387,0.887982796167346,0.929034261204084,0.967311244804669,0.958464778440231,0.957132816599431,0.771088448218616,0.986893820451738,1.04133319661647,0.939475580600057,0.861009985711762,0.778294855699326,1.01673127553437,0.941753652197746,0.933776624091024,0.943038784365852,0.871108581417679,1.01021474004968,0.903672384649747,0.915541387515374,0.948192597648752,0.932595779136937,0.937609316606585,0.944275248226207,1.03863671866234,1.01298258976609,0.84157602321773,0.888037934244254,0.973437944228787,0.735802164878949,0.882885860219232,0.945760579043732,0.929189948131897,0.87586490685468,1.0032203997193,0.791002780797546,0.933083840182948,0.977479839761532,0.937470588706508,0.906382549917586,1.04040669504209,1.01141930677242,1.08244992730561,0.868119698370578,0.96403726940741,0.815114200349197,0.872009988585183,0.77980274728283,0.936485735743611,1.16932552612818,1.06340669114802,1.01963092155885,1.00186325427507,0.963739188826042,0.972702944944248,0.999400605783379,0.87699645440724,1.00582546114158,0.976405913684197,0.99601212263995,1.02554572243332,1.01180759882869,0.960533097357052,1.03196405351426,0.859701165589669,0.843909667407253,66.9192736503462,59.7789205841696,74.2285370620561,63.4637105673129,53.2679894968867,63.5606608197046,59.0472553607639,56.2508025764625,60.8294847609257,60.494476504951,55.4159401378115,71.3057150517278,63.2757473927426,65.6670690595012,58.9572970351265,76.1590753243832,64.2850451967414,60.1056654519872,56.4023302142978,71.2046987345994,62.4817535723238,76.4865730305665,62.9408434975855,60.3401937026755,56.7034513245638,58.6168420790491,52.999219568035,56.4109455301713,64.6062089298091,63.5896278245044,59.8519811594608,61.2835685067481,53.6601964182106,61.0036482095537,56.4751975633573,53.4608223469328,52.2059127376068,61.4551013355199,56.3847781263857,51.6998659302775,66.7114636887485,66.1894444138843,74.7728059741452,56.9769577802603,58.1795434658199,54.2522227749561,66.1803667091772,85.9630800607683,59.1218365023086,63.7751227436127,58.6083285251471,67.1452681330089,65.8830160353245,57.7398569961322,62.0698061610998,61.7365365610743,58.9359329743674,67.8387767498913,63.6842881421678,61.1321590410639,56.5299361566671,69.8108938515903,57.8896916001676,54.5729796045141,53.4305094115824,54.8760881008296,62.5927277805341,65.2306730715773,70.8150843165622,86.0006671718143,98.0461901763549,70.2709239866065,63.0287507800385,61.0288987596186,60.8189436799344,54.67991097751,52.3436696319467,60.4365249649834,67.951726365188,64.8311383597207,56.6225490565182,67.8957795684077,71.2861369391854,76.5905052170033,62.8133707976073,56.1824043545055,55.7280563828354,70.2356006988261,83.2481047764524,49.5872626508675,45.8044709685473,216.194133541126,52.4596205718352,53.2524540514485,48.3735163562291,48.0114194468382,60.26209113925,54.8065832656089,64.2798875244194,56.0422517239028,100.029155262997,49.9402417211542,52.1691802774432,62.9986324784962,63.9683431510319,78.6433782145133,99.6717061488786,64.0132704146477,73.738653128964,57.1545870909614,56.1232638442854,51.1217974327703,92.2727102074371,58.6173089579688,54.3310536819315,57.2818839327196,55.2657757953614,56.6643025292082,56.447857512612,59.1669550855702,146.397379795647,66.4003596359325,61.2436732896782,56.2501600668264,56.2569851012397,61.7642832660432,56.1376793909318,52.8832354742248,69.6803689862219,62.8981958715017,93.2258122513004,64.0163240225128,58.5912608519005,61.0088194721745,56.6017567728851,62.8751801170018,70.8205323736301,53.7230198325535,67.9176067683433,64.4287916871812,92.8393089726183,58.2899575221568,61.3589693263862,52.1064207465759,62.2456987098464,82.0190257614749,56.767174690726,48.407870833816,56.2112788960789,67.162880961541,75.7180415195423,71.0244245161463,63.0868667701128,60.7746091141243,79.8530338574662,58.5253286156895,71.8415744965878,54.7936463525013,49.0955476621242,51.8620779942678,62.8501289084575,57.7570766719124,60.2808893248993,72.4932409978604,51.5343953761178,54.8634587727656,50.8911899077068,62.9554516685426,56.0341838116065,58.7469922944522,90.1645343270425,57.5162136409215,71.0462706231887,58.7991503957025,50.407429366138,49.1010280314875,56.8810013948614,62.4684114607228,53.8290694358767,62.8236296985036
6426,0.951287933134847,1.07787375877964,0.806551169907046,0.900466347261333,0.747955117186837,0.830515299554542,0.835646022997183,0.639403595272373,0.729831487946741,0.650884986123282,0.944055702903978,0.895210888316662,0.730265427867924,0.908954199544705,0.788555419016213,0.780521719956561,0.85556184486656,0.910824511234346,1.04414375231381,0.811939982737363,0.907372025984112,0.956182492331758,0.660275704699654,0.815499707461865,0.931508014854573,0.701251323756527,0.880396252927281,0.832931334435479,0.670193623856423,0.863694921973325,0.825217274606322,0.706457333824482,0.745219272362581,0.987282447865679,0.872723282315916,0.791598081986416,0.650701610198211,0.736208021966417,0.637064373124646,0.651521312127732,0.640705013958962,0.741101071270352,0.706487623781023,0.80198742041863,0.708427846302644,0.613630456046706,0.801020757158562,0.847483733993687,0.653980153001726,0.80459963902306,0.747420788078125,0.67523140729259,0.691790277106492,0.734221492929937,0.735675002565853,0.696793524984142,0.712250933246788,0.761716501603198,0.898455864238121,0.652510287546618,0.836105544054676,0.658832480967144,0.936258254572331,0.971855995167987,0.928444299927913,0.709942714573545,0.735946210188929,0.7800483898585,0.770527427513367,0.906483402420563,0.914022878394545,0.777914480309239,0.897764266315038,0.740818290747101,0.978810667423924,0.72579246383214,0.7501398244165,0.861467504914166,0.899762894801385,0.816641354284952,0.710532233802978,0.701784031989664,0.737835050976422,0.883475185247641,0.822920520274394,0.726690981292715,0.878106778646955,0.711591657201329,0.77879945222245,0.61189374461628,0.694030714753968,0.843882769845443,0.891948686480305,0.979044690373587,0.797386900335452,0.839406808059764,0.819247637314221,0.749447996678118,0.756206680243099,0.742949498286735,0.874326205158643,1.09783325574239,1.13595055725502,0.960207836189713,0.956033368950234,0.931770154600737,0.979967604912921,0.888762100550186,0.731033380219427,0.995264419179262,0.822895384274602,1.0142986125404,0.948760341280232,0.805996172097305,0.722769856384629,0.742833139721148,0.705025982494114,0.999653338257362,0.811356118374789,0.773387055860806,0.729278656745721,0.72015611484254,0.756733043481104,0.751144235750449,0.83000271149817,0.823843900348841,0.937096465890671,0.835575453835618,0.858066461827201,0.763639381852947,1.02678115612315,0.949037356671035,0.910803435254231,0.746860444825494,0.663185860074201,0.875777073880793,0.812208171661821,0.625127452092115,0.762229818653779,0.851344747927738,0.664107678087908,0.705829968501097,0.686641102026914,0.653273741250409,0.911017304543964,0.727590179153351,0.750451468738461,0.856669886142588,0.939514396441387,0.808780482897286,1.06031318264321,0.759099091801735,1.06978955050228,0.789785494312953,0.656366236838904,0.675223780307149,0.798054011134369,0.774046527464937,0.818260787192037,0.661213160523222,0.740672703976209,0.757299910621188,0.827842447105809,1.05425316180256,0.847205948622433,0.819910301311557,0.825471374738858,0.730418278306372,0.988520415367466,1.02926093744311,0.777074796072507,0.838103742970852,1.09366353342885,1.0188525750738,1.01958422004569,0.844718683818798,0.818500922136135,0.94402015947934,0.756414136540425,0.804880590990506,55.1652674341537,86.7046873222618,70.1823300945583,60.2643636265992,56.3667888702836,51.1124961987613,69.4660665028988,53.4170015651015,51.1941305788733,54.4923808941604,67.2076078375415,89.142034117003,53.8647234501144,56.1649366558664,51.7310254880194,50.7230602512566,61.1341559904542,73.7103312369141,79.0985485122789,70.7897946382248,64.7845343965545,65.6827898991916,79.4101366185664,115.158160302474,49.1083930719028,82.3700232480392,73.0004096362494,65.7286858842949,75.2888421926883,46.8575176214853,57.9055570480079,80.6110296832906,68.3116108521521,54.2806008172845,53.1003584163145,64.2784747769998,45.3854596612905,49.7442322513508,47.043428464458,63.5039415469573,71.7439627007035,84.5480353809372,47.7945602712497,47.4284753850474,50.3753905730099,56.9950767535236,53.1527669830161,65.5146009175791,77.0239176404803,62.5608383720587,53.0178694474501,61.6923248921913,53.2701641108364,51.8227667739126,53.7733085114495,58.336119839577,52.0804431602979,63.3095511169807,54.1624202160984,59.5523177201841,49.4860397672379,49.1042288128774,73.9256143834442,61.7082648170524,52.4287622968049,51.7662305830177,53.6458966018281,74.9801484307283,53.8404978180992,49.5939987153541,54.1458109072377,59.3740320563538,58.3671400271246,73.8046101687622,52.468985982862,56.5296007063913,61.5667818558701,48.1032465693009,60.1989543544476,51.2370700221728,74.6585890372304,47.6561444673542,50.2631203188896,77.2466225974689,58.4655738995845,50.3093174144935,62.0744239494458,76.9874129583667,59.5630061561876,85.4533698606756,50.2968330115237,55.0884152114968,92.7462843387278,52.9390320834469,61.0337399037902,51.558777048437,68.7234898891647,64.1608400539574,57.9514914516547,52.6041858697906,49.8220675899409,78.2811977195582,63.9739742556507,55.6159243323339,75.539663813457,71.3308475447347,53.0445141184954,57.6120883472641,57.6018270239599,73.1364722837557,76.3409153417098,80.0389175345646,64.2603051489702,103.553999455557,61.4453919236806,61.8801788348613,72.4951124822805,70.3794209012541,47.6413771437029,51.4203934614602,48.787889341781,61.1406645823596,47.9340861529856,60.4555514332992,78.7610175483382,55.211060560822,73.5952133932722,77.5658033632814,75.6082941820043,112.684683479901,71.0096858151936,91.8693354557855,58.9640360384284,84.4631984050783,54.6997100550841,48.8306927083303,45.0656677488227,60.9238243839541,55.9858061096462,64.0325943468662,58.1978568573128,57.1672378364206,60.8148256229838,69.3108310712305,68.3129118526047,49.4131970899108,55.7983887612564,77.7271462934903,87.8351650496576,60.9173079539832,85.754409171998,73.3051366958912,65.9004823208474,103.535568483941,97.8152544767462,48.3559486582049,48.5178665508201,55.2180132060336,45.3652968908859,65.3149734258197,55.3554800043244,51.4061877812775,53.9669925538012,52.57377617985,61.0715271261344,49.6786752389475,73.4966321547976,68.6698428645125,49.0146208027816,59.4091408593872,68.02342336534,55.090865276232,58.2154683995344,62.7160423324812,54.7340038880207,60.5947713468569,63.3903385025406,61.6652421006619,50.672145713444,83.0378624724731
6453,0.569147364412436,0.539375323747188,0.569501623162824,0.812972242672571,0.633679397390359,0.621055691642552,0.432276962158478,0.594479304533682,0.665571224756885,0.729368248564372,0.522252877633447,0.701290548037117,0.575088137948023,0.788865264104645,0.770725121271586,0.654027996808743,0.680861805106679,0.49724426470927,0.52813604993739,0.537947604777624,0.650170171201221,0.516476081845878,0.543720621604349,0.623476154859402,0.480099538234998,0.582041376007216,0.53586632027717,0.458939889690916,0.590003183389062,0.560579081235486,0.499862384039868,0.554909558128671,0.450114982521401,0.427268205333653,0.459895384003865,0.619936700923106,0.574129283668515,0.477828502721714,0.651557257114741,0.587485111536697,0.612068993906034,0.618494258093677,0.64628895040784,0.486726022128482,0.646033951638217,0.472516299784695,0.720833048136032,0.658482745753434,0.535400583170092,0.6875024310506,0.500440754100494,0.573728249760488,0.575963300467067,0.694296878045662,0.590677154013091,0.666503865848729,0.696171165029468,0.794199671981965,0.451384417420844,0.620953748687291,0.737589420908292,0.705643572762834,0.647468412021499,0.765556060096795,0.582620197057342,0.563842618993238,0.646860876801867,0.700702986761657,0.7398109156547,0.733496967479567,0.661766620669569,0.58037478550852,0.661480874928941,0.582370025089514,0.851147174157686,0.795837752836425,0.497289856043447,0.606896135980811,0.493015576717917,0.444963403694467,0.580669595578918,0.600519421106726,0.515747171478813,0.50273281921129,0.564882638884764,0.527891714963632,0.580419112780875,0.531467112124519,0.47858095376083,0.527344563183976,0.485703382218778,0.503197550032815,0.491223906518594,0.525585913943141,0.627046026145223,0.510002349654762,0.611791979313386,0.466571039205438,0.432225106354265,0.536269842673057,0.563870197233546,0.501812369340627,0.471331418671743,0.457487790613684,0.538406779398765,0.441831094771483,0.469836511413086,0.429632035541899,0.510352189854976,0.619195134814945,0.485404713006701,0.41036495068278,0.590884334031947,0.498882553342978,0.626769950413185,0.649106794127186,0.623797180928874,0.539501423742657,0.549951167756013,0.624184945517275,0.578686995909047,0.784391338826725,0.582432769710147,0.54056323649199,0.699585965660362,0.770685048030505,0.673430090772015,0.585090871479796,0.422435103053435,0.432943936330575,0.535021505704813,0.530363055689246,0.606298589703212,0.661585059981001,0.607992959528457,0.554235815308616,0.852792152152823,0.639244917850097,0.599489044834403,0.513368294828758,0.52784692398482,0.490327919278868,0.741721268669764,0.53035424914995,0.582996348742443,0.488636193362433,0.465827960225109,0.63494343266033,0.668496005210412,0.55387285530683,0.559212961430706,0.630760670426037,0.529432565269757,0.719189796903648,0.649938426228709,0.461418772694726,0.613939920245111,0.508865694847823,0.570733817190142,0.48710182042582,0.495842093343435,0.620250461912519,0.547606213193831,0.819340629956822,0.522969338475816,0.555739566933725,0.645998988422607,0.568317977721239,0.467716893150138,0.522098050756737,0.426341838479633,0.428668886637828,0.592016445441295,0.450855881908869,0.514985271782419,0.509420236216622,0.48259425203742,0.480595023337923,0.551753203695152,0.511473172354761,53.054878124795,51.7893784643752,53.8131600702614,72.2427156011968,53.8140482571322,67.1697920746646,55.3062231343961,54.277666730239,55.3713488293826,61.6864592124975,53.8407051592321,58.26704687665,54.764561902636,84.2646905160669,80.5570811001464,104.876371715248,94.1966633299642,62.8422618161364,59.4988387568635,60.3419795022989,77.3549535229762,54.9864592944035,54.4884741869565,54.0458663798559,57.7350706743891,55.3922404836412,55.075497452155,52.8748471479966,55.7041137140638,55.8573401604448,55.6520629877768,56.2434534629126,60.0136397484847,65.7749203660595,70.2847153437946,64.5503304747625,58.6271975093645,54.5887967615407,64.4767601709497,62.5349775654943,63.6282257031732,65.0521457745967,56.8676812775955,53.9858128010952,64.0530290327391,65.3943287608213,62.8811501287837,57.2213785087458,56.1658692190486,51.968629880516,56.5506326855615,54.1697524786522,55.0243904252987,75.1045117335004,62.9830930438567,56.8426446676407,57.8456799829347,60.2917172646329,54.1877431956595,57.0031854006336,76.6729268456412,56.2139775151907,65.0278610003164,70.0004497018139,55.3988023021838,87.2360487675784,64.5124040722553,74.1107701198037,92.708019624981,59.5138592007522,65.5565931325789,52.9676937003001,71.8245281977572,117.994165256955,67.9495464629938,55.131516567923,49.0834763928827,53.4534998906818,53.0777979472516,51.7010860725117,55.7011724004524,52.7809004014726,53.2312875995227,55.537896024686,51.9104922038535,51.5345140056388,63.6316365787727,65.9931446885076,52.1837085080415,56.0367023741707,53.9172391011934,55.650679629566,68.7377572509342,53.1304819529678,52.8011249587479,56.2520631642537,57.3517312954945,52.2789768664233,54.1460260972449,55.7127112272098,60.6868633035372,56.2659832063262,50.8545065705172,52.4746800167141,53.8504234037254,51.2295026058957,51.2125135939258,49.9566166224036,49.008196645941,49.7618820562176,50.3212751493953,50.1486639422906,52.4285064546269,50.5019071665134,62.0076481423089,64.6437854153188,58.9053551466339,64.2661544212155,54.2456103737425,53.9220073951421,50.5443213909349,68.496631562486,86.4365772530411,53.4494965742429,81.4661459681703,77.6225809020752,53.8180592306948,69.760451787021,59.0075207601124,51.6181675635083,57.2674306413262,53.6933551478571,53.7178495592232,52.95492154863,52.1972811758861,50.8909345985392,68.0364012839937,65.6095655970436,54.6086591289718,53.3377895242017,55.7279536194107,52.9346197753179,56.2678053749751,51.2750418894953,53.8482567302737,66.1046911807606,52.6106802960848,51.068746497478,60.8440225375684,58.9395790501117,53.0746528307517,75.6699648285966,71.7743653492315,56.3953578264673,72.1840535498994,59.1990762132864,55.9564216390965,59.3470223977462,75.8782123326572,68.7458385012734,69.5709583287048,89.2906079374836,84.1575685158316,75.7110345990674,67.7746061717411,65.8682339586331,57.5349223875699,59.6964076987353,55.1223949469236,55.3890967706318,53.7308190985074,68.262202965031,73.1434998822803,62.8512047391891,55.4409288316401,54.0765981166447,69.3299346473808,64.2775637928037,54.9091169989859,54.6226628875157
6995,0.89584209975464,0.957545072312894,0.988868779002611,0.832400687948723,0.933522343772008,0.896544489245607,1.03075776348506,0.983339525392425,0.954241714783947,0.950437157851502,1.01818271139314,0.91093635805833,0.842901015895468,0.882539238029484,0.923218449443404,0.847236405756066,0.918191243875962,0.99470692345934,0.884695370836167,0.892320330336699,0.977456490939137,0.98025890586226,0.869653733230911,0.858725320934548,1.0541162781465,0.999212939927369,0.901455580511908,0.947360022731864,0.990146317704786,0.888456197369087,0.953363772355833,0.976352891730681,0.926991997349679,0.921784542531226,1.01697452727623,1.01852403279198,1.07339774555806,0.868350415686627,0.846495326025228,0.793866101269786,0.948092721800847,0.904533248088643,0.963657111662633,0.957865234257915,0.947512883354854,0.972869572290865,0.903431131403662,0.994693599711874,0.969776301555491,0.968361372805692,0.966608188623342,0.926754853288704,0.804410685937243,1.06708856177839,0.885901039787669,0.964885921401009,0.986793643166854,0.966828584163203,0.998984456006466,0.986766041867311,0.947355866743418,1.01522293497933,1.02466159755448,1.11710032801483,0.975742536841346,0.909943067670089,0.982716064761273,0.869928556978285,0.903269182576632,0.981612887238145,0.99406834058265,0.924859480701287,0.998880562509533,0.826474396187202,0.917512917495739,0.979602633569203,1.07943808091751,0.991016073379411,1.0624771559389,1.00770400051034,0.889325386682883,0.98336308628403,1.05931950084544,0.880046942212931,1.0591491614171,1.03771607309593,1.09483813709571,0.959539069744895,0.975256297361205,1.03662551576548,1.10374851557473,1.01708652805837,0.98693268712809,0.826086529375779,1.10008674917747,1.01955248843496,0.965063137156003,0.971282456217798,0.926731196138661,0.975472038080973,0.848326733219268,0.931363418993909,0.888062969587352,1.00378422041572,1.02190080433452,0.993782099434272,0.924636256533107,0.924787969353572,0.946343847158489,0.870535384509464,0.834973353300622,1.03106584539484,1.0768222891638,0.839038607152238,0.861065970199882,0.956724354116778,0.830316504123384,0.876163393966216,0.976312537924579,0.993863571836656,1.04534369835871,0.843420109481781,1.01919986777316,0.974443076793022,0.942396818561648,0.979933221129698,0.971203013969971,1.01733911506231,0.888879040254083,0.918486692969449,0.977939821584958,0.956230998935079,1.04002264515777,0.971883116251387,0.951899202903423,1.00438890948574,0.949654121870415,0.936863852840687,1.10787749485886,0.95985201822613,0.879452436606053,0.832005897205007,0.817229735924686,1.03989778083383,1.0533144304689,0.995934382085129,0.979694797951598,1.0001640663463,0.894667516148094,0.94424329206234,0.88805848672179,0.849193270687713,0.918232497352574,1.03813921581733,1.01920855026264,1.00802678452674,0.969508652409734,0.952516326748408,0.884540960733839,0.871781827145863,0.966399930990493,0.819437246087619,0.774282983623795,0.776740388800713,0.866810998340934,0.845804008312874,0.822975805131987,0.956359330880791,0.8745927830881,0.872991613759117,0.983613186426977,0.963069774201687,1.02268280826388,0.953381626493156,0.891174327465112,0.860240591176279,0.937122811594898,0.827590395372189,0.936444197198396,0.902058964129384,74.4554688005263,64.6323391357609,64.8113247589392,63.92046640433,64.0120444532882,58.1405749776448,67.462894398641,69.8089454909162,69.5170627737162,63.3894463677123,69.900996818621,67.5472362461541,57.1136132076532,56.9062059668047,68.2909529917166,69.2512381673279,55.2041869471097,49.3531135681232,58.2383805223477,60.3305582403504,60.4429530050467,70.9285992715934,65.704933718049,56.7890248928442,65.4287016109628,71.141250268847,72.1140898770857,58.9972414811276,67.79595850127,57.162485236255,67.6313045433607,68.0858722123272,51.5417065988544,62.1281161783146,68.0704345121674,69.4262827076607,77.0658545722159,57.0994626305083,59.9216466158596,67.757168605191,73.4318322847598,72.7653551218587,68.734940268906,65.6742305318124,57.4545580960309,75.7179525932439,63.6856485169616,64.1285326249157,59.8830215590738,59.8306814272749,72.2588923148841,57.7879331974664,64.6293811842995,56.7101025600282,75.9532057402315,67.5642342938038,75.0043838981998,67.2222114915868,75.3096722835891,64.3312080891914,61.3198651208485,69.0962823231328,71.7771029660188,60.047280730822,86.1426961843837,67.1454981690808,71.6348119129938,58.2811450275851,66.0766665573969,63.2066989671773,68.4844528831189,81.7591536596375,62.9889051042843,53.7067126458151,56.7445207091437,53.9530756425783,71.0334567792356,68.183310643334,74.143826014607,69.0885517365248,61.6150226387168,57.9979044191738,62.1510202645918,55.6478189656596,52.4737980516003,57.0092304524685,57.4026895078094,60.7132427353457,80.5573681023139,55.1003163834677,54.1650091035565,58.5779056354623,54.3276869856716,69.0845854784065,68.1606168833701,67.4460131243573,68.3210265931185,69.1715345870772,57.9918113924717,69.3454087297516,54.9033427158475,60.7091247066971,53.2386377311424,59.3656815577624,61.6852643942945,63.0583192446064,50.2191317044835,56.8792703737222,55.108017030956,60.9900685551329,61.5759757361181,58.5196633304119,59.4942740002095,59.0868151014198,58.3693100735105,72.1625441533776,53.6673607651,67.1872291824383,52.594728883493,52.1842783398629,55.6995779780389,53.1659907120092,60.9873423923218,64.4687037833505,46.4509438671566,78.2568604387095,52.8828025260184,51.6356092607074,53.8362560119463,68.1305471103876,64.3267190875191,67.7165905461335,56.1078425283665,72.3209566099665,53.2119326855179,69.8649801832394,72.0985395446289,69.9597119112083,53.7375720081148,64.5383015501473,73.5630038975002,74.2154571627457,74.6946704203963,99.0456291788242,62.0322424167706,72.5975195448627,75.7090221645751,69.6004342933106,60.4664620949088,64.3673246297367,67.7758161127139,82.1020780938256,82.8597510048072,64.3839864962948,59.5031251746325,58.6970085291316,68.7208727314866,81.8495666913703,58.7537340339411,58.519876520387,65.845357894959,54.9325435140397,54.8163284930842,50.7406813652291,51.5152950326773,59.1006576624513,66.2407742618029,58.6176946930202,60.0858238702517,54.0883935919631,55.7315910365772,60.2649088170402,77.4125189073124,62.6455347870868,61.4414457656212,121.151662126396,71.6180042268385,50.8257287848889,52.0163262909042,67.6672111168276
7162,0.855960298723587,0.928370082361171,0.680253583010852,0.761957454312708,1.08570353936813,0.863041513852409,1.00723594525799,0.549667429654946,0.597351370240679,1.12969220667723,0.689559121754227,0.767316146038127,0.831739401170592,0.536265211300967,0.854529765410992,0.532834695905162,0.724157566175023,1.32663306020758,0.788330499858258,1.16424348727935,0.938589806445364,0.915228125429468,1.10265786003271,0.925367253648018,1.08144448504574,1.13204926833335,1.04032517428543,0.735654207516678,0.849340907190746,0.924624847078693,1.04772641992446,1.10930443994751,1.06338395221866,0.651577134603527,1.18389380348811,1.01338572453812,0.881408522626403,0.974105690669981,1.01406926408794,1.03417428952699,1.0583599780777,1.06821779208746,0.928682627096654,0.905517102196706,0.800583893069469,0.428703565595311,0.845260959442982,0.754697781564081,0.442717879884456,0.599137794288649,0.822942549670912,0.84262815261405,1.04792463298253,1.05089529237019,0.753339591998743,0.842141171639748,0.831150382747719,0.896242772805093,1.08809601831701,1.08433407102125,0.940801572957188,1.01071061309145,1.07476690109397,0.795562185988015,0.966278053993092,1.01043370524625,1.04122035909203,0.731385802699352,0.722384449729043,0.701646987271172,0.901388592999926,1.03022578683716,1.11842065650889,1.14836059685816,0.998391139926342,0.711655908690604,1.014921220799,0.91557587168823,0.948903763683179,0.727301263363091,0.960605103312863,0.464721037322795,0.981487591201875,0.950142858934721,0.82912283614344,1.06097492154552,1.01124200451308,1.03926815609085,1.04634138053599,0.993772639626157,1.05445079286752,1.04615976586557,0.990187894725842,1.08281154413677,0.962410542025073,0.879990298385564,0.986328218850634,0.917430611496031,0.757752892625733,0.871588259693768,1.18341495237354,1.0328014983999,1.03245622958526,0.897056650027212,0.811799210359833,1.05938356105675,0.933751131420707,1.00029422808063,1.08540391172774,0.959429635369874,1.00067783125342,0.890266251584057,0.898396012551069,1.06560708991105,1.17180813040926,0.98922432635682,0.979695170653889,0.951416622382715,0.966657627839456,0.852667713670641,0.971660150667058,0.841316419384372,0.952799934263196,1.13980496627916,1.3458997286779,0.598698996060248,0.17847522789241,0.773205628456836,1.05505797086562,0.960246569514472,1.06494180585198,1.06265551782061,0.919815112462759,0.370862791586626,0.812749680431336,0.981471516617019,0.98219356746726,1.01353417276645,1.14596570657241,0.976027637430858,0.944583737295712,1.05419235650487,1.04763480689363,0.987648770091702,0.644938469041009,0.838626440178267,1.04896329685029,0.971227627821742,0.912097853614119,1.00933282270437,1.17562979847719,0.939426460354503,0.986682873613598,0.921604101806831,0.600875088145165,1.15095853229787,0.940985156112882,0.254116612520114,0.972913030065244,0.726147890719933,0.979809548637612,0.707266663234206,0.940505425957205,1.09934785324706,0.927468242280713,1.03911246780456,0.848624181185339,0.908176070187469,0.97846913482988,1.00859977363696,0.867102432453847,1.08869421624102,1.01210811149481,0.889069690062183,1.15153607187707,0.95822668597608,0.861468186600486,0.906191234442441,1.03250422339659,0.798133946447014,100.797578285449,90.114838589283,101.450238901346,103.049026749936,106.070462980196,111.399126574443,127.348112015073,117.195723281711,116.387843608537,115.757040569453,119.481314680733,126.763591050338,117.913510863586,112.95522522475,96.1667603807064,121.707131193456,125.193231847823,70.4086339041854,103.805945035428,76.567669554348,113.939712591223,124.684146238243,105.242054195568,95.1120614430721,94.7832653740978,95.3214439191267,61.7585708293456,111.74090237127,110.988503820367,100.67036565743,114.727183675219,112.897122589537,74.7000544461752,99.6575945454135,89.411894351158,110.941806045923,109.725844011444,120.74621544521,116.957969923908,73.7372566540235,75.2733389717903,91.7070141479532,122.626547261835,131.443676868579,112.08726243518,122.822543470104,123.011910153948,122.399583992092,135.697995559801,114.722030897867,108.262949487845,102.556051530372,98.2887814915807,64.8528695945848,91.5077970435899,102.977528377431,116.896913209444,124.507305804731,98.0528625295927,70.5522551897102,82.2117156578211,91.3436135116878,106.430417654405,115.327221470234,100.02714133872,112.349896415564,87.0490260248342,77.6961285549356,109.714443572722,106.955290212886,101.04505774212,112.304685550954,87.9100153205865,73.0610055661667,97.0364322831783,107.933228438875,102.842489076642,106.003381798598,115.146189384373,120.551042543594,120.741503207753,152.094359419255,127.055175658401,120.186054970219,131.535924623872,111.561053424621,109.593591051505,80.3545555701302,80.3189390745908,115.399249267427,92.1199898995252,111.354532848091,115.81137888314,82.7067660176514,120.580907478665,111.551905932483,104.61240404679,107.035629849077,146.471403257126,108.587019450716,93.2312347132841,62.0161429857769,137.964457121659,116.344911821449,118.365291094216,92.6278450263922,105.043603300433,79.3944844264062,77.3605123935834,67.9082021773903,112.250042601674,110.341729344904,97.9268892698015,102.53926291625,81.5007507368223,88.9809726522682,95.6264059021062,105.681659393953,101.421784161795,107.955675768148,128.492911658357,110.36732774962,79.7567850219713,63.8867333903655,88.0815210449762,111.802049069344,127.728171683118,111.658217874454,101.752326402408,95.9378508174706,114.490999279954,115.63332881913,107.785938000772,132.916751707661,100.089001018865,93.8417053612118,75.2925340866807,100.253877563861,71.7406931507868,104.79038892703,177.577257913312,95.4743247012229,84.5170605173437,65.6144200196311,121.614046270983,98.6374943645989,111.201129668958,121.260653323979,126.050484339858,121.911436387373,121.296873059143,109.303856010591,89.148773117827,125.040568153035,133.268871647041,133.967327016839,132.103758421125,139.70252635074,121.141090823217,111.914482698609,116.009623349806,126.289606291573,118.844592844395,138.431150774584,126.861952008673,100.00462606451,90.4736647269774,112.161799042241,110.885497557731,110.140198988248,92.4729630871379,102.074178393409,65.6063302624399,110.41052058827,103.940449769365,95.6976074474607,119.128781235248,128.028554351812,71.1528392240231,79.5905230229654
7859,0.752446628360643,0.893838547301215,0.839340971843784,0.773195653267971,0.935750755216001,0.886999458377836,0.66722512843759,0.760908303092117,0.771105626509649,0.82053266672099,0.699315378502387,0.766199575759327,0.97477622008239,0.914342776937066,0.766271815069321,0.649467491087521,0.762225068453743,0.836396032244173,0.610206830021528,0.88457592937514,0.54062180968728,0.751403954896784,0.801428538848948,0.724164794147916,0.705099970437102,0.741545845158697,0.775408539389211,0.698981058868647,0.635122356312194,0.638449698701867,0.572476485287692,0.682552201622196,0.780189849652668,0.723396118899374,0.723578778461622,0.701026091525742,0.673022094078498,0.749346352928321,0.60162302554353,0.733469250908945,0.679852303957462,0.656360197847047,0.695494240160774,0.772939798760514,0.644867739493415,0.712388842981856,0.690692342038812,0.775185401797482,0.691037100492367,0.917161120788127,0.542290117120416,0.930375109752102,0.837209708741001,0.995284651994301,1.01286978635704,0.995591207412207,0.801499550652844,0.849559780088578,0.806907975515379,0.821526772382682,0.666697034500316,0.909878347410771,0.905752273862867,0.837664666758977,0.563721511153169,0.784606865223756,0.957627376547994,0.982602179989547,0.854470181679288,0.999565782125908,0.761834783102588,0.845493343837741,0.555700830284851,0.918186266708288,0.799904508499492,0.758992399101511,0.599481132475462,0.864949499384273,0.787546461308909,0.78972781470865,0.843632922612832,0.922951192715598,0.810552596802725,0.898028376592202,0.986825391134472,1.06684958327996,0.99058374983244,0.864772542587748,0.778911712254728,0.766356383905962,0.734019144243977,0.866710898095094,0.813229494069639,0.609488147463509,0.747421965043505,0.948004146432695,0.712379691179674,0.744976170529949,0.956049868565864,1.00872559769089,0.855524705618848,0.813361458866572,0.70667178143505,0.657983268102278,0.82179862060813,0.723617132859412,0.683526463680524,0.706174996838998,0.739412012081248,0.918331669058454,0.792768242763884,0.997577204345418,0.885661351076319,0.635491880155749,0.845640859179574,0.787092436391297,0.701807742775046,0.771689995087497,0.959815494653272,0.417002522937271,0.799235160535119,0.893487193431333,0.310327975471591,0.934956642684182,1.04806863894168,0.861804497807694,0.95218777234539,0.773776384935816,0.795595181556713,0.760962831515404,0.886257403346732,0.88181541461267,0.87150981291262,0.80703849380689,0.991343301949982,0.404659910727745,0.796314078073892,0.84513209667697,0.346144012288485,0.488997936985271,0.868460753100583,0.749907340178632,1.07065250834928,0.90984555807475,1.04757174169489,1.12903195991291,1.08889297790222,1.00115394601584,0.939942472770221,0.597848890584467,1.05434717189844,0.764601956072695,0.683021932694177,1.11098576573615,0.808966124664126,0.88897681930528,0.769756362270631,0.908664289719965,0.625754976519129,0.82577661101919,0.80789252822996,0.713375204012705,0.777347142232647,0.838951547417204,0.750465008122109,0.791417990944102,0.653771125857242,0.66027538833288,0.843644531976042,0.726621989051367,0.670601555979003,0.614142176196408,0.526638732145551,0.317631427325909,0.713016812921186,0.663159172507629,1.03524651220635,0.539182808492944,0.685913471400576,0.746286877872383,62.2463421348572,62.737090940716,66.2743272808004,89.1601964405451,81.9601236381712,63.3037313167084,60.6260547252337,66.4770680001806,58.2167506374005,88.7502709706566,90.5397523374115,52.2240799789684,76.6120177215292,115.089239705801,87.7209306172264,74.1417232584518,56.9587148523579,57.6250600273475,113.247877936785,71.7204168446074,102.707867082441,57.2151813675283,66.7002721841944,57.9171249906372,68.2201868052527,57.6996221408461,110.612273535626,67.6297784849924,55.3000566062072,50.7002460177082,51.2203970598102,53.7645596706067,55.6045048148251,65.4941582192177,55.362069889949,53.0666130575717,63.5820863881429,49.6494549955278,55.1871834314201,56.6412960725728,80.4641442710713,90.2022988462317,81.9260632792803,106.229655054849,119.984205572499,119.520112779537,85.9537687938168,83.0218356595893,118.705574346564,109.990454381261,117.700981615599,86.127753076938,91.1874318827349,68.2662954495395,100.121397895809,78.6741220664471,96.9242427823904,76.9564921201313,60.3993330444478,67.9099310356455,102.788807551422,69.9664489235868,70.0508123693581,61.3183493493148,91.0455095427606,85.3041921797974,99.2584342475866,91.2401705358893,106.250520950071,96.3043165975725,91.5099767749587,89.2978969890055,110.756920727517,63.3290750053026,62.7495653451407,59.2893443397405,48.7453647821543,62.9535111222367,53.2056031822832,51.628153226053,47.4842020908862,49.8001393606337,56.4315916329201,61.3877937924703,66.6673972743276,60.799425102391,52.6147206546873,50.4673014152762,46.2751982227511,71.3243386130153,65.2511126927399,60.5849140116671,60.0845146515687,106.388181383039,103.736957326043,101.336930525638,122.758934156722,84.0960874364375,95.871055862562,109.118206058278,89.7879861562726,108.816330508056,97.6086457410199,84.2610385540198,111.288969746956,80.9430818306061,109.717023070279,81.5037569267212,103.867205450955,98.0378616068835,116.023390353389,92.531182372949,88.8335535180153,110.176301203644,76.1397941420757,93.3358170394504,110.476715008654,118.266420252955,75.1867708685891,135.880731832932,117.567426983434,60.6632922693927,122.049295575096,102.337150629004,96.1111063098254,137.314286241368,120.863189686547,68.7326184919773,97.6380107588922,87.1041435169589,57.2912809201309,60.9274676445431,49.3998301163468,69.4346982836557,80.3041550519956,121.128878181529,129.464960870532,61.2998926681269,119.563165902185,125.400959526144,54.3670361247781,66.6629705139459,74.9772981123171,93.9720664952903,80.5843926017277,61.8562443220837,64.1182880979409,55.3748960166148,73.0381867835342,107.824124797569,84.7338736711596,99.5653073722517,116.873272885745,81.7290470965763,102.411426494632,103.45503985633,66.3011033493136,77.6145759783738,126.211400491438,120.634555178051,76.6790068593358,62.6328595361216,55.4311539187798,56.5201386573065,63.3160935160916,79.2805080639891,56.9575673474554,62.3170770592929,72.2252846644521,107.945564961704,128.350691080616,108.510969085115,110.135997065871,124.421384051456,102.403033904518,103.956801976994,99.0087203220457,117.331607618782,66.7745787361333,126.020060293892
7879,0.808130060300864,0.806162117213955,0.614216674541021,0.79950424528801,0.757558252591204,0.721093301678511,0.737229993099125,0.86281179221716,0.867122677909955,0.737279375815329,0.703018884336454,0.824577027208083,0.872681053553164,0.801100625547504,0.787130558626652,0.819500942663308,0.397682255106571,0.725766230765092,0.786244253401029,0.504158782397402,0.731246112598861,0.765810566079766,0.750588971818038,0.808054548405434,0.909415432990456,0.779202726134785,0.859217917122164,0.833438856004982,0.462216781387,0.978791841985511,0.480202083027364,0.596697603744572,0.781382172315955,0.88431746664903,0.861704193864645,0.8620885983886,0.892768799389307,0.966039268331603,0.839344356075036,0.809255086263817,0.918194565654842,0.889658222370955,0.816045784842066,0.799759999872315,0.820952028621771,0.960993295058763,0.862870928076629,0.87318147476273,0.725141606610011,0.386439446740707,0.556990958947297,0.860659751319508,0.712917753418529,0.974315281237302,0.177558129744136,0.74727905769938,0.444660935002271,0.678948618640435,0.879940820872287,0.775003346621803,0.809488556071015,0.321843429578304,0.685593570607759,0.668885144168143,0.77156325689681,0.492307094058175,0.78648890978972,0.746443685706154,0.628703058910589,0.618430987782797,0.725139296670314,0.702800488224557,0.743330399611658,0.618356433205481,0.680860556039811,0.788534234929219,0.603824637587037,0.646852337687864,0.610828329273829,0.724639302705226,0.528042719226228,0.586547114912957,0.481633746706487,0.865299672791475,0.61074973285672,0.511194685825328,0.589965031279059,0.61266253613895,0.698880362283789,0.443593727627462,0.639469846865331,0.705045268422031,0.63478706135722,0.162294796240722,0.170188897454874,0.155533874684972,0.256708710079804,0.219402495882921,0.359717144305641,0.520242436694065,0.576349463733894,0.68163833207629,1.01258711819541,0.64920574076054,0.320748190933735,0.419692837545872,0.826591116001991,0.527666841159995,0.752961242632258,0.572720140963604,0.571195155814648,0.832550844459329,0.607411659582967,0.801842702636364,0.738614012345307,0.538385930077225,0.939829892646665,0.76912842096671,0.842104147255752,0.933389069917877,0.855707678570374,0.732683564132356,0.879670530560885,0.752971208655556,0.770706327297929,0.731335624501956,0.782551386866712,0.80565129394398,0.812190799018403,0.51255191634852,0.726987689437755,0.740510305879879,0.6643284716749,0.701539993463167,0.814834750337915,0.817373158262024,0.851835034667694,0.817254156707572,0.785569787564013,0.901033917015394,0.866384998150534,0.852130031875658,0.731110662783038,0.769466960450901,0.857747040359772,0.806214051491844,0.69467270513706,0.581165134157384,0.798394101806494,0.892380072219556,0.90257033755205,0.887313323316534,0.855340468478314,0.887575509576839,0.759076111293195,0.918652043017267,0.803343934970445,0.227174842982506,0.368316711275642,0.756329679594937,0.918496815253434,0.817234693863932,0.857486638513645,0.856273551325931,0.754768427410934,0.817626586058906,0.665866146359181,0.863125248811266,0.819156968517916,0.935702721415565,0.902322682324631,0.783124768496383,0.835735916500496,0.855940483891699,0.894534145845576,0.805151532286761,0.736104597076426,0.950936095410214,0.796171713225269,0.976886019801071,64.3193679866444,89.6487240285173,114.854047160582,88.9503799802078,66.9437651505751,89.7969245620786,116.418375556163,104.944353280263,90.9369397607219,75.7982281060348,66.5941349872045,70.5090602214568,61.2371274946511,106.803039464026,88.9383892494899,63.0605594527128,130.519329156496,86.0267874651296,76.2013034437977,114.880630276022,103.831998368141,84.8850942442235,79.9826529877135,98.8293982932285,88.3121214608844,89.2964395845469,110.898007452293,90.9344777728206,104.345520523515,73.7148571410404,145.629292977864,105.520268140955,83.3712625463935,101.536911332254,107.219771510336,128.631165772775,136.094726757849,93.4333382830003,112.393797496509,94.1696413873172,104.891865933712,66.625514764559,69.5954426847727,67.4584397524562,54.2037990277688,71.2678440337215,60.8524064315198,89.5493469422368,95.925188361623,121.269668083605,114.611203323463,80.4021561407822,93.3625464454173,67.9846810033824,131.214688147303,146.748672193623,135.015932294836,115.075944425496,117.797055074853,115.975356518327,123.41838841438,129.336452877255,99.7953529567464,59.4511939775631,93.1706098203668,101.834187573933,88.9611650460503,88.2943431268089,101.507612439316,93.4477543576992,93.7922173794743,117.514328620106,74.220949962503,52.4884466646219,68.7061113772128,109.6057046343,109.180349003993,111.226415412483,90.1807453998028,98.5678385914337,74.0769958721792,105.452990245601,90.4498953004493,81.844068532726,91.5824178097697,120.111941587605,162.732848575987,71.4316882909923,74.5241515947622,131.518130992213,103.156263286263,85.9898418002254,108.258151847228,125.369351631922,129.241087046884,128.484222708623,114.882848293634,130.743408773792,125.159378757415,128.883061844227,113.947491700724,98.1489801477198,83.6556727790274,121.96749729383,126.158988974893,124.946664044158,98.5292175304455,130.913606665748,101.139971689127,112.709042210049,126.947560502405,97.2313515147203,112.054525877746,97.9387799954733,102.848358783993,126.516113069529,93.6049435747049,92.7151256375295,85.3815439710017,77.9682450807405,56.6147593989484,116.118310679037,116.547052765926,127.283980299239,107.714748335194,101.533820696465,92.3342141355621,60.1461306098906,98.8878654054211,122.224339455142,95.192536695065,94.8350605453497,116.762516105109,104.569882143012,123.947160284551,96.5294000373318,82.762106813748,82.8668502235983,74.9930763287577,99.244341922872,100.906741963648,82.2913397134047,81.6707222519472,76.7379511062914,79.805977572893,137.035265768088,114.061772391704,100.248925331445,115.307815916384,101.418757720261,113.835103862044,103.294275520926,91.8622395457816,106.139356753163,114.156075860126,76.6033055626885,61.1923078818279,104.588507749188,130.835438707615,95.1391496876189,62.199067002552,96.2804082106885,99.6889156302712,64.0972804356637,83.4732268395991,96.7208198229675,119.182113426436,94.2500554391811,58.02989755662,105.821097400504,65.8484288792391,68.3085891564279,91.7435427568696,58.3310349843097,66.1053440774825,97.6934841478023,101.323501767117,62.3775850064726,61.3905178236369,87.5023785501831
7910,0.420961979263474,0.49163332974695,0.465788905191397,0.502866208018859,0.463476111061811,0.654293217450542,0.43138745424395,0.440679921375391,0.384781988667274,0.451685028085315,0.415394401888484,0.462576826115999,0.38711555330158,0.504369544201578,0.439981443825219,0.523802539994848,0.48328733725509,0.396559357165762,0.328904871350316,0.322302687287613,0.431299846500862,0.578521260338975,0.478602278574636,0.583318252748664,0.43784695554732,0.353467637487496,0.524745570633454,0.486441424245966,0.494739274079217,0.783088613330286,0.750821152203494,0.900282594101158,0.971910033906074,0.818893750446532,0.532358263794828,0.594417095118087,0.38303577273788,0.431830871634851,0.577168840747357,0.581040391856991,0.607425097328214,0.404917991680166,0.767472328493595,0.558609596285605,0.675249003077191,0.778898472418005,0.918516477237076,0.71498979187724,0.551801149767023,0.760279172039745,0.513278419868857,0.560765397783751,0.520192834850904,0.44087265260307,0.610999728261997,0.802574084044787,0.60935078197558,0.791336826112697,0.766930526954495,0.611719141656716,0.664958801799315,0.497609660057897,0.332000347311717,0.497997459511879,0.55405296979194,0.35187031498601,0.480695172786257,0.61070284535922,0.957478102816312,0.754397721715815,0.760455925253729,0.761785780241343,0.677694271496118,0.787330529144499,0.741455123927336,0.63105887392407,0.621325869947427,0.687660516357465,0.637406849801124,0.572326390105376,0.63178634084073,0.631411598646963,0.656627856664374,0.714905840286562,0.671478270155765,0.703179470720363,0.46833965807246,0.626014761565043,0.478852163129077,0.487081079011599,0.389600440448264,0.546828001520786,0.412059355228937,0.409282998358378,0.371548679526482,0.526739909061204,0.411856551781697,0.367469534060237,0.409062289272846,0.419977630702524,0.582269858922805,0.460770403501933,0.359685904986583,0.52944927300877,0.402534761101759,0.307875963439229,0.392837075501283,0.525239469173012,0.415477173627676,0.350260319181976,0.330273344321042,0.381067846904533,0.309359336774703,0.430032125769925,0.347061415787588,0.318998707781256,0.478341961354878,0.441103911979437,0.343924052006012,0.432997487214454,0.472910002245652,0.345197941786456,0.526322870612033,0.384195129541711,0.387305447029472,0.401842474820171,0.440018785560987,0.367712876980128,0.531271221839115,0.46930954673997,0.361310545938654,0.476539159087799,0.346450699899658,0.385691180056786,0.385002622355411,0.399882682997681,0.389934978206565,0.43930614450157,0.466430074268948,0.433926800065709,0.387079462319814,0.381593821881873,0.416071085343725,0.492356976108869,0.481176929843861,0.359325567175999,0.429074908558938,0.446903928812269,0.504649830406009,0.465020956683081,0.355764053013053,0.405654549809278,0.351750972519996,0.338332569262021,0.438969891761192,0.381674898055083,0.424930142139531,0.426409764781432,0.39362355106973,0.358713652160151,0.356780934940753,0.527461391613653,0.497391626388119,0.516497246550669,0.406090392686505,0.47251753242249,0.580405464291907,0.4429193890192,0.440077071494713,0.442086348761699,0.505535944222523,0.411488266423369,0.499547129517577,0.465713750874736,0.395326002232485,0.428152928916106,0.348755509665781,0.387007947315247,0.423580858146486,0.514973292097948,67.4129380643272,83.5285962571856,69.5986108814388,63.5179800338244,53.7560272720026,89.5177422017836,93.7563211430129,76.5208555201939,76.8680686215247,80.0003696676366,80.3867497048946,92.5374049679462,81.3425441060792,77.1937712482058,82.0568236675269,83.5538476106529,88.1523472286665,75.8816392742352,60.4669168763476,61.044956758161,58.0036386940095,79.696396066398,71.6068187354988,72.5755246083918,74.2419131910564,81.6288434241367,95.3286790008628,90.7314343162397,101.370100083507,80.5715299771529,108.213430920229,73.6362330044524,69.7791102832634,63.9509343030453,75.1310883728107,71.2921549524059,97.62476842436,86.4322291565927,73.1924030365037,86.2404613455277,72.3945853342515,101.391908901061,78.2721989556348,105.585025680666,107.136275893102,59.8872960465074,70.5708622524077,67.9863901058598,65.234834455348,80.2347361800067,97.6774781547453,100.949303791644,93.5948610489453,77.7971353880103,88.9326338639472,75.2230605733194,86.3765231776898,89.369649555083,92.4938930384545,90.2852374438845,93.7276112239952,86.8171024694155,92.8647285432889,95.2711169325646,85.513264935268,62.5123127578949,76.9445985596152,87.901485683905,83.7819111968111,124.140396112303,93.7649838560596,109.447885539659,97.3937234316527,78.7563614085527,81.0113966528442,101.793014017629,93.1018212264662,86.6462883034885,84.920373867206,78.3361813449812,105.130171376344,103.140308098748,93.2723841423028,82.5314672319595,99.8071324211923,77.8858836851835,58.5369353325935,103.2058779644,101.802849412291,78.1189521050714,62.3271344735775,66.8201982827341,66.3404639658479,75.936494329844,83.0537518079064,85.6951615498989,80.876916166539,76.8854103900692,71.840448726279,65.850495305715,87.2816291324995,79.756887604205,71.4843872580798,65.1662159363823,86.8160237548712,85.1189473626645,104.276937462095,118.839751349565,81.8963507338382,89.8567360247139,77.2853952043104,80.2729244265375,62.101389911874,78.0449567998048,80.2224212760657,73.2268452135826,76.1752624216223,83.9400529437694,74.5980232762486,62.4845275478863,79.9207257091808,74.8698233403233,81.5323170832346,77.5946167353405,69.4181178443802,77.0982420413516,74.1629860486129,69.0377919092436,85.0923440006608,92.5710557676988,68.8872326991429,77.391613119367,58.1672081472811,95.6533953573691,102.555961290953,74.2698894697307,73.9720962212893,91.5828439096608,98.4245086414758,74.4814158354224,71.047289207968,79.4092841532708,85.6457316006032,80.2593869379734,73.9516948306515,75.4260103320979,75.3053023561946,79.6499328886441,95.0946299938241,107.000121352384,85.9256442795395,76.1901988414502,73.5549082202382,89.3636143898712,94.2321456986559,73.3157112762551,53.1637087244245,58.6732163685873,69.1134378578288,88.5657020861002,75.0645873467477,91.3654468888835,69.9244306737889,85.9483753386406,73.5996059905776,79.3909558691687,101.793451604108,75.8188829001718,68.1629941298679,81.2256664536051,76.6070317948162,74.3506553251338,73.9276454819056,74.3538462071899,77.7121628025151,72.2511436735176,66.2866011512958,86.5521936269133,76.1107959006591,83.3023566804684
8215,0.526781551192888,0.47692206774288,0.616618693691932,0.679341244292576,0.49461220446487,0.472857040606014,0.553306013679474,0.436971315760161,0.503666192503539,0.518263408174282,0.506753369828674,0.495216950537659,0.490498023363794,0.491118344168049,0.575520984121606,0.463189021112828,0.53492871569609,0.58678835184177,0.536317066319258,0.487042655186521,0.499956193967464,0.61505149280842,0.587791990509771,0.539605658953839,0.482678070142463,0.542553728231615,0.60177041933014,0.559023326983486,0.578806161482992,0.575503186759043,0.451663313682478,0.460960521247974,0.582230828599539,0.499460901329461,0.744153774112079,0.874856670195735,0.616387054378727,0.610468889308162,0.800542519256845,0.623732584927788,0.985929905206555,0.613509066927654,0.572377099489942,0.528355986878928,0.590926826365109,0.52300940036889,0.750195843528097,0.669087146481951,0.522961687176173,0.617970948480105,0.473480269231511,0.459714974183151,0.782221812035213,0.590372090454726,0.631138408492275,0.591371810164782,0.46892132447986,0.575681446379235,0.647524734163468,0.793137212859561,0.749176771154408,0.834330992651857,0.603352388699565,0.712398540088122,0.609436487791931,0.675890977246682,0.544143943608847,0.570204074606477,0.524289780945254,0.685280758136831,0.658512836985747,0.685580560778768,0.52773914064896,0.679838384587416,0.496360605753955,0.771617947394238,0.821043679328964,0.590270016443628,0.622441308726697,0.630503046549317,0.614391464210077,0.558482348367676,0.524591286617309,0.536254751874244,0.582713406952221,0.601872715807932,0.508557557486784,0.624229082523852,0.642532906689188,0.62061871834654,0.55348763282312,0.614980254457417,0.488032839325229,0.595347630898295,0.604110155704069,0.623317126780875,0.602131423692658,0.500384536460764,0.712207424454089,0.591239533753676,0.554243273085948,0.610570177598171,0.582282568384749,0.702230178392098,0.52578241009832,0.521188695156161,0.504315457372494,0.574851015575141,0.551573519335429,0.737302933097167,0.255361520097265,0.486371096010288,0.591805320242139,0.371175245181505,0.18891247727116,0.324508272438723,0.597352301810266,0.747025564388483,0.727227752668846,0.254733308082821,0.617897563395024,0.456506370967528,0.849554056675903,0.654635924898535,0.847709622466154,0.668834713871525,0.505676546944946,0.708834474248301,0.655207490602335,0.197523460512645,0.616520273826062,0.850120694082382,0.74390038604209,0.688831542894845,0.591950727199682,0.811094040847247,0.719465296175618,0.711832962894004,0.693769507649087,0.813909076613316,0.512152569308627,0.655085247169704,0.685682423695276,0.690909401868882,0.762573116347183,0.6580906090623,0.835263208721713,0.509233674911781,0.519869444172334,0.728495527305381,0.802618347750194,0.76131313001419,0.573832019272966,0.230966454035151,0.699261033366065,0.790866480412631,0.574271172460161,0.687753602766837,0.580053926215066,0.582186473169266,0.455686741387584,0.700332338468424,0.83127536353124,0.864805139708724,0.759427818217177,0.707237532791098,0.79218937109358,0.742140761243078,0.690541373115512,0.76995106312275,0.783327556517937,0.807639408617833,0.768842347602689,0.820048217939828,0.783205419328402,0.785484386834704,0.727281411861925,0.651496970268584,0.679108126741681,0.684290340297914,55.9886791283638,50.9753611173601,55.5069852548336,75.0585619410436,60.0093778493776,48.3759949057977,54.1547662826272,46.3688078840066,54.9010571951861,60.3670264175649,71.6315430391975,61.1696392225762,59.5252961775607,47.1397545671828,63.0522526444404,53.1003577970551,65.6829027122872,66.8041415859912,74.9241104700493,62.4398817114862,54.592436838531,70.2686786387278,64.6375951759755,53.392441416468,59.312233655488,45.4105765857057,62.1757299332977,47.8884974110765,52.9217044865227,71.1570587645522,80.1231223725328,61.6972415230833,77.9934117467432,51.7522011076516,91.7659911362777,95.8692930306701,77.4368791183333,102.730455008192,97.1743812644178,105.0529867132,88.9787653839476,57.6298487171705,60.9343327706068,54.204804230575,69.1247572862409,47.272761389978,108.551272789092,99.307793057877,53.4877919529758,71.1984804418942,98.5361982870858,116.854554121547,96.8447519277689,98.7182344994937,83.4825110120292,75.886309241084,69.9600625063515,60.5156839932603,85.1711126526173,61.6654732186699,114.321390237391,83.9675372864054,73.88965431043,63.0934791760971,68.7797930911718,92.4258960214033,59.1136678076677,62.8640048257909,96.2006604899313,71.3389171857483,63.8469298340536,53.8174516984796,83.0518604012071,92.9872738453075,62.3685111367895,88.7035167303982,81.4858317049019,59.1642093293243,50.3241683444036,56.1049456852042,47.3520680538822,47.7917055472321,47.4826354637209,56.3151636225701,70.0626181370123,72.1461373836348,64.2427315309986,48.6190692952703,80.9823453674091,73.895687714385,46.8392378692647,57.0003525966147,59.3758573587601,67.3760025565649,55.4235530633858,96.9639423793521,51.1186292480023,46.8384474466165,85.5435548964224,46.4945961347911,58.9701165798514,104.074472566559,105.743393413453,115.870555037172,45.2748951650175,47.5143519191338,60.2803579244514,68.8563244580994,60.6252653932615,100.530302022087,118.33897982957,148.089466687843,122.070067238983,117.198116645523,127.292959628692,125.920031245788,113.692189159429,77.6632587538109,109.135775487547,120.277497021835,85.3348816205888,91.1551145773125,81.2058650160688,87.0665404840039,114.066816870956,105.26732221107,143.880784510313,101.973691182749,115.07442473087,120.598595350369,104.740628463477,88.3096852530848,89.6519439127869,64.6028363722229,91.9977368651919,76.3191888237824,58.8810804395295,88.6601603868152,84.3819752696905,80.1853218629551,53.8031331212157,69.4244254955214,80.1499344039656,108.834986108948,100.677390801673,65.5729443303824,87.6187699273716,121.750884842243,115.042417859955,119.234475560668,64.1410362321342,72.5590540300167,85.1066130046483,124.096310862601,112.969571697233,115.141790521767,103.692374138609,92.7986741883669,102.362852495661,98.2299388358135,130.796085188686,85.728629245348,111.164477769677,118.848857390984,104.271747930479,69.7898102788518,72.613975247726,62.6976051303265,57.2593045896332,81.158957218253,58.1633532792609,79.6578390965252,56.4701512972791,73.0881385913,72.1594222146205,85.3613604981837,79.465695049872,83.4865663511538,57.9612836513888,89.0044999428911
8219,0.428565736663128,0.946755487963251,1.22971985970974,1.05639570327113,0.333332151468535,0.87481078207424,0.703652336471685,0.674759141321188,1.0484041873593,0.879623021507897,1.09353111554789,0.885280495131595,1.24954726748356,0.740990188246928,1.15307189762245,0.447038562425142,0.841337840270903,1.39386265712752,1.33418768382818,1.23924281586641,0.857299560790123,0.956209813146288,0.861337685988956,0.347268811455796,0.439379228428847,1.00205204053453,0.842805907357058,0.792378488369665,0.965314177224887,0.865874217924433,0.804193448409897,0.833671446953566,0.789909348407213,0.900992417977907,0.86532063217021,0.91263348410717,0.761571335173972,0.879969286682291,0.828244533839373,0.989462337498883,0.771314700165248,0.733137685471311,0.943572846895159,0.905982469221871,0.317099728376489,0.847307270911935,0.800848185466718,0.785937328704848,0.876268582587795,0.853080173302312,0.894458620954064,0.718209658354024,0.780999040118689,0.722661313050729,0.683097533560171,0.75753598721616,0.624954231113304,0.730444031935323,0.758419846082195,0.787585716354064,0.851402614265648,0.919766127029951,0.740050598445808,0.77532990934423,0.65434360349802,0.728258408429168,0.813619523471183,0.89805138305097,0.854171399468127,0.784363388027731,0.799171689157124,0.829995297266706,0.930295976005236,0.783335457079816,0.69868453825886,0.459180075300979,0.820641948704555,0.376536863654023,0.597553177468653,0.92243619334565,0.545611104700706,0.664003162395353,0.875547406275783,0.959921076857529,0.387640916360801,0.783813841264816,0.854332495765869,0.828714058234936,0.865946803097898,0.29946089494465,0.16626165758026,0.749396911727347,0.739803601286449,0.731246364739746,0.722865172728183,0.826281973000116,0.842760261495209,0.72054615474806,0.812646225107261,0.524682490476613,0.739342043622539,0.635465031901679,0.745202332800625,0.624826229079444,0.76630981229906,0.694992089017538,0.663351031545948,0.353472877004583,0.41864736675151,0.314946551628113,0.727846016433488,0.823547088098987,0.737960207993074,0.613279482835791,0.787769006834259,0.707791162915511,0.817852174156431,0.739166896756931,0.809596134470084,0.798158200413303,0.744364676218352,0.721420755295262,0.777907316145104,0.78624833174328,0.857927734136789,0.811804724361261,0.827539654594964,0.754690986395436,0.741925771894293,0.659760459991434,0.671025348824868,0.639463495007247,0.282805521186432,0.558270746132427,0.266768356741644,0.453099933024658,0.829103484274428,0.691407401321558,0.808677285164422,0.622062265083323,0.418028694478683,0.175538665960991,0.474506186765896,0.564122238762955,0.788911071972892,0.778269542248265,0.793354253095354,0.568822256727568,0.34753275729075,0.402210375706129,0.71077989824141,0.686805640521694,0.697288231079452,0.436569681257385,0.525972686849901,0.797823518302934,0.559452290211342,0.824274339737627,0.651159522251312,0.840533766325935,0.77816503915787,0.701013000111219,0.467258425604891,0.215266075544296,0.306669729810314,0.381844074245153,0.483112792798609,0.767173600614063,0.778805259784244,0.718143818727659,0.544164575293233,0.736117538762793,0.790975839194106,0.776173853520426,0.783623464401799,0.89433276820687,0.889814133852756,0.769925069402004,0.816662987908698,0.781799906745621,93.4715801315901,100.159468835826,57.0614601173692,80.6531173798224,117.425530011554,90.6533132839125,84.1104370610377,102.469884453819,64.6276122317697,83.7199914970759,51.3498515309623,54.115035793518,57.2894213863017,98.2438298236296,59.0972623091752,64.3778439659279,57.3153479625654,63.8721789535275,56.5284271982949,56.2803092363656,65.5284329396208,63.9455741230764,61.0217765505839,112.669262168968,117.780486444574,76.3744210094795,62.9833344255451,63.4571569618792,94.0650978708918,60.4961719060228,98.3505991172844,75.7978750873611,73.2827935312603,64.009307377615,59.6020111096284,68.3760575289855,61.2507303742144,79.3073267091462,80.1656134662563,82.990744330578,81.742634280778,66.5951869452482,91.168394595065,84.2536867877202,109.135054291264,85.9915637855513,107.798235306549,113.425653824039,53.4297181329361,92.6047057780515,81.5570801022241,68.7170469116243,88.8402051152895,58.1694176819865,86.5908709229583,59.9073047759008,61.1215429816091,63.5819081596732,59.5926700455099,71.6014830808522,70.3478350391149,65.865662867666,71.3897196053441,78.7303372581929,69.323921446391,81.1482121470859,72.751815407292,61.7425678977207,58.4406067733322,70.1245155150998,70.1970142435715,59.746650778292,61.0118907671185,78.9605137174893,85.7751172954529,109.679545780005,90.429479051673,105.971463474202,124.379442181845,56.2444219939111,58.1069013410746,72.8409630612911,94.6341681543779,66.2854802060904,98.4981228256024,103.729930264371,68.589682904491,69.7422672445332,92.5936596148742,103.807961438894,121.252408204248,92.0682087760496,105.191554077099,83.2067236664591,96.8352934481704,75.4852929730434,65.0255832307082,111.334569749293,70.8774406798773,79.5610256290607,85.0700293933267,70.5367260606791,86.6266779160518,89.6966391025076,111.641035850244,63.2436898212316,104.749212131761,94.6617072171349,124.914849242417,97.9103902203406,104.948183985733,84.1295104313426,101.699411386277,121.777167605556,99.4980998181524,74.7594766200265,57.5103712364017,57.7696245659842,62.388519246379,75.3628135924032,69.3188415368451,54.3786220601188,65.6478845271761,88.515225726273,79.8124500354919,93.8447399432831,71.7524351256545,95.043469830413,98.617656751648,90.1281171639209,81.362588112039,94.6341743591401,104.05598005294,116.082703454487,123.875046398017,120.125410531147,80.4111187321015,117.093159301742,92.1197457038,81.7356783944839,100.046163391253,126.222227356873,128.943323759923,95.1167001075891,69.5341814725507,80.999108653366,70.1886316439324,94.6844732316417,122.086207649989,116.344239154383,123.359326620165,77.7443771778969,95.3644167354544,108.110831068039,96.341705537098,52.9881737668227,95.5445408272994,116.754382012671,122.571355262102,77.1145853584345,60.6960481136042,63.6212557038311,110.57980772024,127.397085593278,131.04108052541,115.706117320916,113.47450465843,65.9022646636707,63.0211754562269,91.1447320418288,103.281477047447,101.491584821737,81.2091501644788,96.038823032536,66.4450445520454,74.0836054182483,70.1341996955132,63.4885664279715,71.8680001494075,49.5942988879392
