0.958909414,1.088966446,1.181375961,0.813763848,0.763705996,1.031595643,1.006064734,0.981357831,1.009142014,1.024076226,1.051849656,0.941560296,1.039486229,0.907359184,0.705435107,0.92188753,0.889441554,0.63379439,0.879810066,0.758280678,0.9990293,0.95119899,0.712111336,0.789855406,0.820841481,1.095066339,1.267286219,0.881372778,0.943367898,0.850655735,1.068777504,0.963468977,1.090553403,0.875049733,0.880049619,1.006103231,1.091826485,1.01561464,0.879169595,1.341871827,1.299135372,1.018437737,1.153441996,1.053687225,1.121177545,1.268012591,1.04535336,1.078946801,0.912684114,0.801044593,1.013748924,1.041367809,1.118754,1.131239697,1.051405884,0.966391423,1.150994398,1.079308181,1.231738165,0.668334132,1.116728896,1.525921418,1.027720718,1.116439682,1.03355244,0.994594359,1.270947457,1.342948255,1.126319769,1.205168994,1.274155932,0.809445996,1.236961312,0.920113118,1.031213855,1.013745736,1.057121274,1.041819706,1.268125829,0.936754929,1.086305637,1.110144958,1.085175837,1.111194512,0.863261393,1.120052109,1.382841081,1.425963705,1.322427206,1.455287233,1.455358273,1.399005753,1.206179621,1.184487232,1.060816559,1.017823154,1.185923458,1.075018631,1.059221205,1.061201495,1.168838967,1.143330066,1.429451004,1.208533816,1.315047088,0.932388348,1.060691894,1.317580469,1.438240752,1.299714856,1.103253451,0.977927141,1.036807586,1.02422901,0.82141979,1.128859747,1.332466371,0.873631934,0.776400499,0.968980758,1.340285227,1.253180767,0.804247823,0.441554234,0.582834078,1.568947348,1.078221002,1.14279374,0.865828219,0.769626825,1.062551927,1.227384503,1.073454999,1.268352527,0.82464438,0.802439171,0.974273239,1.038290474,0.834594435,0.774195808,0.775793453,0.757642428,0.952741515,1.11662023,0.951499144,1.129767743,0.945781811,1.280163281,1.32589376,1.259825128,0.90112251,0.862823987,1.040650067,1.267937619,1.089422103,1.367596753,0.996709934,1.005847615,1.086427926,0.902722518,1.102003007,0.846304282,0.958903293,0.884841539,0.970491921,0.690966081,0.510961755,0.68374567,0.73261702,0.828115723,0.632509746,0.693116116,0.524276,0.916310024,0.679927987,0.778404949,0.50575898,0.614890755,0.811296499,0.594121519,51.82245328,58.74097373,59.57863762,47.67394849,53.58742727,62.7159573,58.44521714,56.84639685,60.48367671,50.50482868,52.03916639,57.88035495,55.40170602,51.9486945,48.0541101,47.60823764,44.51396763,45.05655187,45.46653385,44.576026,48.80601761,46.25359096,44.09168046,45.05570006,45.48148141,47.45629561,48.05431873,51.03269917,47.43209664,46.63311643,54.57039447,59.90503253,44.76106341,46.37215281,46.73417591,52.05560859,48.84791216,49.80637078,52.6207638,52.19935499,41.10931491,47.84363639,46.38111823,61.78910552,53.95407746,61.02902928,48.00057556,70.96954891,53.27828231,49.82774754,46.53237778,61.98741532,47.18126134,47.37186276,48.08920905,48.15441827,53.54789751,49.88473456,53.06256284,51.72499615,54.26335247,50.25472689,41.76377458,49.69789856,54.43023611,49.45898419,56.8574765,54.92059515,56.09572522,52.39663291,46.39742526,45.66759867,50.65957459,61.87067722,52.99166195,53.61487208,41.78522727,55.6946396,47.64048653,43.95131144,51.79226755,53.83411953,57.40208646,55.0599312,49.81781267,46.79632458,46.40415872,47.43312159,43.75806533,53.65461209,56.3387638,49.59253648,48.19862981,48.447964,48.98048133,56.98118795,54.26852474,54.42122577,54.72984758,53.73748289,63.61842874,46.46177124,46.88667379,51.1548168,44.47491871,45.14557319,50.80023879,51.6538565,46.70838697,43.25845681,50.53445087,48.86527209,42.47837786,50.60471469,48.49928556,50.02891724,50.34463877,48.13822529,46.05109139,46.30846097,48.58416976,49.23020904,44.54260362,43.60564704,50.87911284,51.95525734,42.81149035,42.46444275,57.94589621,51.5981732,47.92723012,43.46539884,48.37612513,46.42363537,48.93821039,43.63710421,51.26872186,51.19336836,51.28384481,48.44776697,46.74488175,46.19691416,50.3270813,44.77356714,49.58197726,48.25695664,48.4553736,47.86325885,58.80388591,51.23316833,49.39404743,54.53332164,48.26337247,53.8651923,46.50433294,50.63383548,55.28330988,48.66481534,50.8828647,46.92074471,50.30556298,50.17012908,46.46125766,45.82006944,44.90663367,48.09645967,46.7456183,48.16008136,44.70463346,43.93566935,47.92657855,44.07683114,43.27851199,47.3809884,45.1916999,45.33588012,43.91613951,45.00152522,44.28917602,43.68769558
0.61814933,0.832553919,0.64776854,1.028065587,1.434705305,0.866694395,0.790327473,1.245664779,1.226590513,1.174526011,0.903196946,1.020464197,0.879154771,1.109833924,0.995757958,1.170755614,0.772611895,1.231623916,1.042142012,1.049703412,0.905874953,0.833670957,0.880007801,0.953402707,1.039203582,0.993034588,0.552209159,0.602234595,0.685233132,0.611661412,0.924817478,0.608835988,0.746936002,0.679119452,0.790534002,0.852532335,0.92702676,0.924397499,0.988584734,0.824883121,1.065642442,0.890097538,0.740622395,0.950672343,0.945259838,0.99823905,0.897371751,0.697859255,0.664317527,0.964014573,0.963900328,1.041871136,0.68699812,0.74642669,0.814005156,0.917835929,0.874811255,1.255776384,1.46257243,1.424927657,1.491233216,1.155930954,1.667840311,1.376010125,1.584186279,0.37017914,0.306082857,0.761855591,0.647477144,0.656740861,0.644904599,0.66747201,0.597436287,0.599520537,0.685419964,0.793122408,0.797349792,0.840992712,0.850006012,0.761896924,0.770586134,1.121579764,1.127479006,1.107077277,1.069289623,1.002977414,1.190906613,1.039635785,1.131827204,0.954795099,0.98573251,1.253988781,1.378576288,1.232034218,1.118486352,0.505421262,0.535468867,0.649335999,0.546941214,0.784401245,0.816721818,0.767664325,0.764535631,0.826771245,0.859318505,1.045389846,0.387523899,0.659321119,0.769281179,0.865841198,0.907904664,0.98935992,0.803538849,0.791150858,0.810908564,0.784851157,1.052762364,0.477147961,0.688552471,0.945341764,0.886415015,0.965579904,0.782721373,0.875914813,1.049603601,1.011738085,0.445573715,0.697642421,0.960028558,0.860086578,1.072769127,1.078822847,0.974684912,0.985428647,1.167951563,1.015025034,1.013111011,1.216169921,1.304291939,1.235357789,1.386766939,1.221102588,0.691316043,0.649569678,0.796378391,0.747938843,0.893176701,1.200884932,0.896914243,1.002366432,1.221004574,1.192411013,1.124046136,1.401376044,1.258392886,1.208066211,1.186739519,1.290649517,0.902319943,1.097419999,1.059386143,1.058589988,1.354347898,1.189233374,1.113765092,1.283895714,1.184074557,1.018684656,0.863207121,1.476864833,1.145826026,1.297670274,1.118018549,0.938964756,1.269834073,1.137078569,1.215311649,1.180445447,1.300717631,1.25446661,46.83714623,53.13047996,49.48680975,54.47242239,53.29064217,46.34320766,48.84615966,46.47295683,51.0837382,57.25589538,51.83413735,45.7991287,51.56943577,49.64886998,72.22886137,53.05376645,49.31252457,70.16818631,51.15417041,53.99576532,55.54446788,48.68811565,49.19594742,47.55725719,47.67581074,53.0131549,45.0357826,46.64030775,45.34254517,45.40059224,46.39956565,44.68042976,45.03119358,47.448814,46.90353617,49.46985479,50.47083961,59.77194515,56.03680816,56.58108065,66.03624451,66.39341418,65.64839165,66.43492153,69.5580902,68.40991174,74.92313739,63.92133318,71.6344437,63.2449012,63.59276116,51.1813763,49.20824519,47.04345763,54.90336936,49.0715667,48.22289808,59.73496093,46.00365781,42.23682967,42.15422666,41.80112905,43.60298994,43.58606478,64.30054224,124.0092458,129.5287292,112.5398212,82.5636725,127.1442145,106.8574957,132.3539507,132.627197,134.4311567,122.1303002,137.5293259,119.333406,159.2853077,136.0671851,93.92009399,69.42037069,109.8128991,102.2265711,83.34021497,58.86079759,75.72535219,62.55315298,79.65871718,91.29345623,101.8010078,113.1442751,81.03093168,77.16204705,105.091495,82.99557512,91.82485293,120.8630481,152.4023125,141.619574,145.8188246,127.5451394,133.7424582,137.522444,119.4270508,101.065211,87.45140698,118.8157834,159.1235918,146.0818698,133.5997494,122.9386404,102.1324208,161.9329663,151.0214599,128.1898717,113.4142091,98.06674518,127.9504868,148.4210129,115.2157908,146.370974,122.9048189,121.5676565,143.5211212,117.6113021,111.1794606,89.02277658,144.7731561,131.6008715,134.1338467,103.3696629,92.31223508,107.0746135,95.18474933,111.2827766,107.6065824,114.6348306,99.45504478,86.75338279,80.91084249,62.2133238,70.34681382,134.0641158,146.344785,149.4700282,123.953894,119.3778874,106.5836455,120.734687,122.1508592,108.2928703,90.86092012,107.6546871,92.92033562,100.0284399,98.23645202,83.76080061,92.20537018,143.1496082,98.02347794,104.0101219,88.11252766,76.0536483,106.0853688,92.96205689,68.2923734,81.38341844,93.70367883,87.24110163,74.65023782,97.54476283,128.8270444,121.20713,112.2557529,109.5353961,72.03227509,102.1380655,107.2560752,71.15477498,97.97544504
0.816022072,0.534104335,0.54124476,0.521684766,0.601871904,0.658306582,0.87375058,0.899313695,0.817670481,0.780927039,0.716376269,0.781312655,0.826767835,0.953720724,0.739097362,0.616027543,0.301862885,0.471874693,0.17455259,0.145945717,0.244369428,0.10139478,0.244263936,0.400676666,0.172777375,0.56631339,0.84206277,0.859158095,0.92119779,0.794831729,0.78735488,0.842975895,0.330494844,0.556877398,0.702874415,0.680253219,0.700765034,0.807791192,0.864345796,0.77776604,0.835267035,0.862253904,0.827087584,0.85412417,0.791883239,0.960720198,0.906446281,0.302650367,0.749477437,0.194252483,0.073220008,0.397873593,0.084139299,0.068332244,0.332720824,0.134787645,0.533849402,0.692916141,0.778931814,0.729517266,0.731736715,0.822138225,0.819830713,0.339676004,0.644688725,0.734613396,0.606449397,0.841203996,0.811102278,0.886093834,0.835180218,0.766687026,0.809013882,0.764313563,0.73285455,0.710735104,0.905141716,0.800959225,0.280357045,0.837589576,0.282913028,0.075289389,0.479868381,0.082620407,0.051265323,0.307758617,0.134876258,0.421233558,0.78196248,0.931218491,0.515947986,0.773719467,0.806270759,0.787311676,0.464529205,0.662262359,0.847695288,0.758571661,0.879708426,0.805780146,0.902371795,0.799528269,0.889325354,0.896467515,0.770025714,0.882742741,0.7055713,0.756458584,0.75913869,0.297572282,0.689672353,0.260222403,0.085422749,0.384387799,0.083421187,0.051493434,0.423949481,0.147602741,0.344481943,0.720192005,0.879976049,0.746556816,0.820420165,0.783978045,0.840083829,0.395055541,0.850668781,0.89098906,0.718035164,0.841166329,0.932631061,0.846341099,0.678589343,0.620500269,0.797774068,0.825297812,0.755187293,0.707191224,0.825926184,0.655988141,0.327713057,0.640954987,0.472407838,0.467359402,0.398675451,0.559153656,0.273147071,1.194215601,1.1357435,1.10542484,0.794557786,0.575663596,0.556387709,0.675266913,0.607363252,0.580765564,0.855254841,0.85751197,0.973846193,0.930306564,1.097511054,0.557982162,1.454193331,1.163546205,1.134574181,1.008002427,1.263276025,1.034831509,1.253891467,1.131620863,1.162071833,0.847791115,0.97558654,0.328350402,0.083686933,0.235633675,0.151859769,0.115633335,0.924657559,0.233470755,122.5459956,144.5381146,125.4124792,109.8681319,116.3603509,141.0971175,81.13799368,110.8133269,108.0628005,112.6543649,108.8355339,122.0788639,67.84640245,74.59601628,59.78169744,123.1772338,123.9479093,128.2833311,122.4610548,126.5121659,120.5912208,125.1236766,122.0737806,122.2010848,133.119963,119.6535746,136.0388821,92.87291456,60.83603279,112.4062361,82.04137366,130.3688571,133.7296147,132.7570208,117.7041018,121.7849155,138.8152863,69.68633282,66.87424213,74.26561612,78.7519662,99.11601618,93.73846726,68.39196082,66.95586138,84.36852696,140.0620672,112.3452095,124.6277238,123.4997794,124.6986635,122.2415256,124.0254465,122.9839097,121.9889595,125.9238264,121.4900759,108.5744601,65.76643813,72.43435925,115.8181388,126.1025658,130.1901461,129.7826533,128.2844401,109.5924875,115.7533289,123.5188491,66.21095849,87.26268426,109.8586176,118.9977271,106.865891,116.032306,96.14434434,100.0201412,104.3316335,132.7004141,114.7232376,119.3219802,122.7296243,124.226233,122.1017562,122.1246458,122.7066201,123.1512854,123.4191179,123.7466707,106.2497982,82.38381186,96.31429278,90.66434185,124.0723319,120.7391724,142.8758378,127.2313206,130.5606504,111.7607377,122.6169018,57.60164358,97.11552809,84.53340838,107.7576082,87.07266027,73.48638783,82.32079315,62.25302299,76.05833682,135.2877828,115.0059358,120.0317043,122.0142614,127.0151616,122.7052774,122.668013,123.318409,123.4329988,123.7907759,122.741599,113.5306091,65.7708729,68.56644318,101.1259303,170.9399832,110.3959106,135.7186112,129.8365182,117.2108349,117.6168698,126.6328839,57.66107027,111.9656902,88.04704316,79.43613646,81.77371605,112.969363,98.97418923,93.73861844,86.09623209,134.2553513,126.9680413,120.8677487,126.7825347,135.3411153,122.3110269,123.7619898,131.3336101,139.4411153,139.9678375,58.24673318,45.14569826,41.3908529,41.03678364,41.06735677,40.85149347,40.77401118,45.865008,42.46143393,42.9070585,52.19377596,44.08141092,121.7186608,76.67312481,59.71482476,82.30821068,49.7442603,47.09465688,91.40783229,79.4231196,84.21699109,90.72901341,64.03962993,127.4461098,122.571461,126.6778738,122.8982636,123.7055669,128.1532241,127.0597757,124.7267939
0.85770337,0.761707948,1.149759176,1.139047031,0.966335963,0.869493789,0.719874672,0.936932217,0.805376195,1.02489553,0.668020193,0.640573727,1.030736017,0.9209273,0.523029446,0.43229235,1.01425816,1.059553798,1.368342576,1.444001529,1.191036013,0.934777065,1.484625516,1.235094312,1.167853116,1.202635011,1.000461804,0.953989668,1.1415433,0.69502025,1.104245371,1.007282795,0.771247212,0.787252108,0.939813621,0.661180504,1.298583711,1.035588695,1.024956466,0.579752571,1.097152549,1.002114331,0.794895055,1.086649265,0.767694887,0.93193542,1.083146855,0.983197437,0.787157508,0.831715431,0.641114689,1.023379161,0.718514778,0.751706183,0.588515677,0.814555998,0.860382298,0.649949443,0.507833214,0.598187618,0.86963981,0.910105042,0.74218421,0.580895519,0.993077548,0.889939516,0.718912383,0.703906627,0.970730046,1.033791056,0.696022595,0.695233377,0.945806383,1.09824304,1.194247152,0.995549964,0.791134568,1.116709167,1.205048302,1.379947076,1.260574441,1.103076582,1.271930958,0.480020695,1.256444649,1.430462501,1.227803146,1.396729002,1.417402074,1.565215867,1.5309621,1.482757699,1.103948935,1.353923201,0.904780483,1.114872399,0.958618119,1.4030699,1.443728581,1.262090198,1.307182586,1.436437667,1.192390312,1.058697787,1.378635235,1.04000072,1.013338432,1.160802937,1.030010107,1.275302586,1.142558636,1.020770171,1.372234985,1.080908451,1.529192491,1.657282028,1.426790304,1.180800256,1.042919247,1.451237004,1.357302454,1.198492794,1.354758451,1.191073621,1.323098713,1.377720653,0.463883881,1.469322313,1.077813716,1.085694994,1.378934171,0.922801373,1.261664757,1.232722218,1.273758465,1.25708263,0.918902196,0.779839816,1.493848655,1.26717824,1.263949563,0.939375427,1.260417604,1.096046637,1.046903035,0.294475588,0.603888754,0.369972016,0.568644631,0.791386801,0.900502516,0.840079869,0.939201533,0.96181196,0.995223013,1.020252775,0.946746489,1.078012606,1.007015969,1.029774068,1.079917303,0.928076313,1.061318067,1.09437636,1.232611339,0.826647838,1.013368391,0.92443085,1.04058101,1.07785904,0.857728383,0.840370279,0.964403283,0.934569512,1.015283635,0.91936382,0.808720386,0.782257861,0.782592914,0.743882823,62.00324929,112.3304135,112.6717306,62.51097047,87.54557582,55.04454819,64.00598799,58.8623335,48.89215041,48.95341694,51.97644457,53.64645163,58.28798858,70.42560638,69.00046455,76.15849952,80.68892847,59.75731535,68.61833533,48.01886992,74.83395135,94.33313019,56.43827304,76.27013299,109.415842,67.74343188,56.540327,67.79568372,101.6931944,102.8518874,60.63080598,77.99848016,84.30049994,93.00001615,61.25307906,67.56612129,58.27178552,97.15131484,70.8013485,87.34843639,103.0040985,69.71227925,89.17130968,92.68138815,64.74019281,79.54754079,74.52073692,59.68248416,67.36244655,57.009903,95.77465389,64.71135657,54.34656328,64.92457145,71.55099816,59.44634173,66.02963199,54.23819142,47.83914147,50.01506516,61.10794802,56.33520085,52.57466317,50.32676263,60.49759573,83.51243767,84.43599951,69.14365585,72.46311909,57.49756858,52.46479524,56.55590848,101.8214339,78.89729142,85.45974864,83.12185008,75.61552942,78.650234,76.84997156,70.97085707,68.91724718,89.80056877,69.93331407,90.67798632,78.24528695,57.76524639,68.1464684,61.14799012,58.74258565,52.33657001,63.98994457,67.29672173,79.80566304,79.23112037,92.62470848,64.04637607,78.15406053,58.77650153,57.79775224,64.17173822,60.61187212,72.71808493,86.66638736,83.48819415,67.11157186,76.26184224,93.77698323,67.48685071,71.68620094,72.34734605,71.05463699,82.37101518,46.45614331,65.16736247,50.22520391,49.99158652,58.22937866,80.35200435,58.35998632,48.83635306,48.94851499,66.7077802,51.462762,64.74793109,50.65139653,53.2850435,114.2913951,67.42734606,56.67551097,70.04304223,51.40779611,58.34085869,52.3412735,43.92854597,73.28095747,69.30979477,66.31041112,59.48535586,52.96853317,63.58082526,55.96000187,43.40031365,63.10456586,46.03815757,85.53335227,139.6483237,123.3388413,104.8775572,123.0499639,140.9382178,94.470893,106.4031977,59.98169081,59.87135481,62.65508258,63.58393885,63.49561144,59.97632664,64.90460602,60.48191289,72.81075198,68.99064821,66.06325229,61.35222615,83.53459606,52.0519908,66.5859101,54.06718313,59.57107975,63.36241162,59.78258712,54.65023366,48.74315182,49.00598996,60.77325623,62.85821362,56.68561734,53.89522351,52.37986334,48.11245338
0.640238917,0.762684677,0.763832371,0.663672106,0.774426563,0.956579645,0.827635684,0.821942949,0.872056817,0.6558714,0.75354726,0.672535064,0.550401571,0.434250442,0.934777601,1.269572001,1.33404487,1.027413133,1.01110271,0.90742755,0.648803792,0.551880414,0.671053615,0.61799763,0.493039538,0.825285692,0.631954148,0.684267793,0.81798754,0.844000463,0.711307728,0.742720685,0.738594133,0.603638884,0.926818753,1.028841994,0.876450605,0.578673233,0.828710209,0.657140642,0.582129469,0.867107803,0.603315958,0.989605267,0.749598312,1.057471119,0.886977863,0.867590174,0.592823554,0.89192493,1.018960583,0.995576881,0.479352664,0.537659912,0.534896759,0.430329066,0.65680618,0.36883642,0.375381593,0.432375854,0.501004321,0.520606784,0.482700057,0.437801231,0.53298753,0.611277519,0.661066639,0.46433644,0.467652012,0.486823543,0.596255368,0.670423741,0.613507758,0.483596215,0.545024777,0.535429607,0.456806309,0.963138423,0.615979643,0.82617726,0.718424155,0.795094527,0.591278343,1.131018926,0.984444763,0.71963979,0.701396513,1.053795178,0.764773712,0.86595946,0.648926648,0.936623452,1.173209524,1.195180862,0.927419309,1.255709229,1.090158718,0.90971747,0.897628276,1.09343589,1.006848019,0.995895114,0.500968045,0.618300526,0.788229859,0.726941737,0.688912368,0.490135231,0.739644278,0.719725638,0.549177914,0.606893419,0.698126835,0.470476754,0.545467049,0.615790509,0.698233609,0.497080366,0.362074041,0.6400934,0.697413704,0.534403035,0.497094285,0.569806014,0.580669473,0.824266197,1.18167086,1.084959239,0.65452562,0.969461441,0.977411365,1.155858,1.158074757,1.334681969,1.369047165,0.364628131,0.985207038,1.085137115,1.050707646,1.215912242,1.296194112,1.276965623,1.362219678,1.402371581,1.321837603,1.476853938,1.35074478,1.488254444,1.359858118,1.577337179,1.412280313,1.531249685,1.538107892,1.524140332,1.562673021,1.64528006,1.279633303,1.523592889,1.761778237,1.548461603,1.38215977,1.467832618,1.208340683,1.40956686,1.290624304,1.445223161,1.507473704,1.360364107,1.397081907,1.480776436,1.481502349,1.522660571,1.528841315,1.421749147,1.502419762,1.497877623,1.568342885,1.508954272,1.638048215,1.501116852,47.4363322,55.2526592,53.57630246,57.57298543,55.10279273,78.66571934,52.05306653,64.26377186,48.40840791,51.80228631,94.09402785,65.82336478,60.11797889,72.40944885,98.18890782,77.52005323,62.94178135,74.57183084,74.34744485,54.16813027,46.59030794,45.57231224,66.52821958,49.35086898,47.13330353,56.26322118,56.27391103,55.61407954,95.79439919,126.8655112,63.04612072,49.74265932,97.76242621,70.76009413,65.1162637,68.20837052,75.41123174,72.81847061,78.41727094,51.97872857,71.96778758,85.69748149,48.49115121,53.91109757,50.65036479,73.06943517,55.71720527,59.33476235,49.21650113,67.02812151,85.94378399,52.37087128,47.31949739,45.36056103,45.33772521,43.60194107,58.32072265,55.82359791,49.92708836,59.01555567,52.73256108,57.02347926,48.64155286,64.18208064,57.56935093,57.69857199,68.42290955,47.27010675,54.90443532,61.26420958,48.0135446,57.38719211,57.08285031,48.06289936,55.23642183,49.80713419,57.02441545,53.3211846,55.72158212,150.0743963,77.6620595,113.2886367,118.4409861,84.36351826,77.475763,95.43809043,113.8120585,70.53172925,55.53571087,58.83225743,47.97736704,92.37477903,68.76039153,76.56978795,112.9873308,74.00606103,64.40992758,64.03787851,90.23035785,65.26579424,69.33767562,60.01691007,46.02189509,63.15614675,63.61072722,54.70751341,69.74783082,54.2232123,64.38350214,59.25318793,50.98793573,51.05226073,74.9219394,53.47637812,51.87366943,49.59363151,55.89003808,48.42722798,48.17826727,62.13332424,48.11293137,48.09653675,45.26986656,62.78198174,61.81271557,89.81762885,64.15836159,61.34738755,103.0786631,86.56872943,79.88628247,83.94834557,67.81381205,56.69824505,49.81900673,119.3792565,46.60637289,50.42501602,42.92533106,49.04846388,41.4622534,41.36175052,40.17000353,40.94927825,41.70370566,45.71598967,39.6171546,42.31730548,44.33644988,44.12511308,43.39262286,41.84442414,46.36590504,49.71972886,46.55170579,48.52582499,42.22167164,42.27755505,45.23007389,48.22267668,48.11260456,45.71557532,50.01344385,45.75409796,55.29675238,49.9633262,64.58728465,59.7482567,58.12726755,55.65393194,58.06207225,58.56336588,52.99723097,60.42884166,58.93755363,56.99577152,72.38192996,72.0618667,65.64632932,74.99564263
0.58769381,0.598115266,0.591096936,0.529894537,0.800912182,0.582981261,0.695143528,0.57235852,0.810803966,0.709502069,0.602186547,0.665198884,0.608360572,0.908653115,0.608171605,0.837322806,0.780235277,0.600615565,0.539458239,0.205728361,0.909701468,1.050364139,0.86766825,0.757325307,0.530258666,0.662151389,0.752392564,0.621855513,0.643080982,0.772052713,0.75423098,0.592885069,0.636669962,0.627489509,0.659247967,0.673285689,0.698227574,0.706947066,0.692812788,0.544795891,0.770028702,0.709646436,0.58873738,0.754779536,0.604269614,0.3692309,0.79001586,0.66141969,0.879415968,0.64775378,0.657216569,0.537581271,0.71925543,0.767715105,0.762687142,0.630096404,0.671400664,0.596199991,0.585561039,0.68980867,0.542924933,0.548453041,0.477120945,0.610354792,0.627324914,0.622966099,0.429214046,0.583238201,0.654345082,0.683235628,0.645065613,0.623747706,0.461370601,0.720885462,0.487082867,0.680541509,0.557065381,0.616480449,0.474988757,0.604556157,0.526488503,0.580679028,0.480774095,0.579845836,0.609732745,0.545712829,0.525611129,0.576199822,0.649796401,0.579780818,1.263786229,0.946151519,1.232671782,1.344996094,1.409543193,1.172868169,1.406345403,1.408095695,1.6061628,1.540220498,1.461465734,1.354188637,1.365898178,1.592274748,1.525963198,1.459741345,0.455063939,1.382370223,1.196616121,1.097898327,1.344701382,1.01459661,0.754901636,1.311358295,0.958204935,1.406132872,0.939996989,1.104647926,1.5158393,1.06103359,1.433003292,0.914044986,1.39184448,0.781908553,1.365693672,1.164508722,1.371849241,1.443446559,1.321249952,1.008186068,1.480389114,1.579642458,1.092698261,1.383149264,1.514941274,0.290688987,0.385354981,0.74267868,0.523322341,0.703402103,1.183710596,1.229084742,1.043673645,1.274773302,1.09198522,1.382532662,1.450184829,1.352771127,1.41334804,1.453147429,1.442521681,1.432365712,1.261568971,1.252858649,1.174759576,0.379879124,0.883629534,1.063536416,0.764483172,0.77371902,0.613971495,1.030554226,1.129130337,1.106396996,0.64369007,0.729191673,0.904284613,0.564046819,0.946916011,0.892617902,1.01952584,0.638776146,1.0436709,1.038315265,0.3113885,0.299126997,1.200169982,1.151409082,0.883752829,1.088059981,55.42433224,57.54371224,55.43742211,54.46210113,64.71552155,68.02939453,62.07070303,65.20877239,73.52228281,59.93600612,55.70704609,53.59540335,57.08089053,88.39401879,85.0719182,68.58698234,71.37401709,62.13907875,67.92176845,129.6512536,91.63501122,94.10962948,129.3612391,65.82004424,66.12985134,67.00114036,70.96519652,77.62051383,85.75090422,84.47839577,73.10359367,74.48865737,64.22247341,59.64893669,66.11912136,72.79597602,76.19124395,63.93904467,56.94860884,62.14170547,68.7632391,71.55449399,94.55538223,72.36306636,63.44090292,143.8128869,116.9210364,55.27283019,101.1890147,57.97214465,58.37190951,57.57548668,61.75837087,59.73364492,64.43836972,59.48622836,57.56626355,56.44345055,65.39733541,60.49945469,59.61705065,55.77456128,68.57716979,72.43335886,65.14057442,62.80737656,63.17194649,65.19730727,57.76844475,71.31177617,65.07041797,67.80312478,62.74425627,56.19914835,65.58477313,62.17593145,61.6767943,64.12877735,55.71428221,62.61388501,59.40589253,53.65299841,48.79295989,62.77352489,61.24160555,57.73100734,54.09227581,92.16145085,61.1644184,65.67210527,56.22986626,94.60335728,56.62586337,51.85176333,59.27277307,69.64013162,52.84887158,68.94567541,59.07335688,50.9734767,76.09434739,53.94523955,62.49891587,64.09106883,68.63503855,81.47531804,129.2839108,55.92082597,63.80686682,70.64263783,61.67821949,68.63956868,93.84487122,72.20767499,99.21208021,59.48219606,63.87047317,84.33686224,61.5966672,92.51702075,56.83084751,102.8010107,64.95033152,103.2151336,68.0690566,70.15066974,64.07345318,75.68274197,85.84346929,87.82644021,53.69151707,58.90376503,91.37896758,65.3929073,53.73767866,131.5238352,133.4047803,108.4621194,122.1796125,151.5998469,67.79688377,62.62881018,96.80069014,75.95317142,106.8531241,80.45879664,63.41935729,65.52185456,59.24295613,73.55742731,70.00514613,54.4974592,68.79077131,66.6679482,76.82765415,105.1941032,112.0959806,91.32444375,121.9165115,98.53452741,94.38767796,84.60272724,79.6714157,79.66171856,71.66025814,78.26321193,71.8965733,112.2823113,92.46986066,95.6437508,96.5116337,92.03360233,74.85095881,78.39960809,87.04906474,125.6388156,94.8929517,55.10601106,95.42401884,108.9437656
1.000700384,1.004572173,0.942636971,0.719100273,0.259181394,0.833216575,0.795193033,0.781348009,1.004362649,0.9730646,1.270992436,1.189004389,1.070129197,1.10236155,0.987182299,1.169273115,1.127708754,1.107314264,0.641500152,0.687942472,0.115424688,0.497606995,0.109930353,0.032607417,0.192560588,0.049956204,0.100538202,0.170641168,0.069941847,0.449289547,0.520872498,0.650670177,0.783637827,0.611425641,1.057570683,1.025833984,0.675284121,0.479138182,0.635114055,0.784831129,0.799964041,0.628970315,0.822409799,1.006442361,1.154697195,1.121330333,0.918804203,1.320140004,0.809236155,1.066692579,0.582995095,0.593130245,0.144455785,0.598386085,0.129385228,0.030523281,0.274245125,0.041560009,0.087758375,0.141293769,0.049577589,0.204915667,0.565747044,1.234016684,0.663728205,0.817319899,0.980273727,0.856722582,0.482237301,0.676531983,0.78140727,0.640380603,0.719747693,0.837322957,1.366209527,0.930656907,0.721364015,1.034403829,0.951614493,0.955742915,0.880628097,0.855758663,0.768716404,0.634985781,0.112229572,0.4527658,0.097288027,0.038728279,0.27873033,0.039847348,0.073589636,0.121524614,0.062821065,0.375523342,0.440459012,1.276161045,1.37761549,0.671881973,0.92482401,1.058212763,0.44076245,1.001639165,1.021823183,0.882899219,1.086044073,0.841821645,0.905724581,1.075526599,0.917381458,1.031377536,1.222475501,1.021422454,1.050017986,0.74157707,0.488644399,0.495605775,0.202970441,0.522397553,0.227374647,0.057467799,0.396282331,0.042801935,0.059575182,0.317491367,0.089060693,0.484754391,1.327921628,1.476205465,1.410969183,1.322830846,1.443468246,1.323017704,1.456489623,1.486669025,1.643547852,1.556880953,0.22051635,0.177483665,0.696132639,0.876291432,0.75723548,0.745535224,0.790818335,0.796372829,1.08621816,0.800573005,0.845735907,1.405471741,0.715020749,1.132101861,0.361638351,0.18984045,1.093503864,0.229800613,0.208404846,0.790862804,0.395705506,0.805998429,0.416786668,0.823027043,0.883042198,1.114249961,1.089133008,1.05805509,1.012811023,1.187639162,1.104495967,1.324717881,1.590517051,1.383508138,1.268054247,1.268986464,1.023133382,0.810404955,0.664924658,1.13322926,1.143542211,1.034068248,1.098416345,0.76751088,94.44859347,91.87508544,105.3336887,111.9368933,129.6595612,109.6482603,110.2150351,118.8277415,122.3749754,69.45129027,86.01206459,97.55996146,80.61295942,82.73334403,99.45681579,94.70846581,87.18106891,90.46464996,114.1436013,131.3291415,125.7975215,124.9642624,121.8083557,122.6400737,120.6766503,123.3989759,121.4364913,120.7720921,126.2922895,123.0109033,120.0523494,102.7541879,92.18038125,117.6145532,90.10481441,122.4169633,120.0452199,123.7282711,81.54113207,111.6124237,127.6543374,115.8214889,111.0659604,106.298913,92.49404343,88.21354422,120.2312822,90.6667878,112.9425823,96.91298295,117.259646,129.9758305,126.8952219,126.030245,122.1042024,122.4978803,120.7304525,123.333271,121.4886199,120.52599,125.6460244,122.9025417,100.8721678,90.70282742,109.3414754,88.20222113,106.5067606,96.61591279,133.7310501,93.62615342,110.3165672,108.2345125,116.3715439,105.6972962,89.00437286,103.7716049,101.7184383,92.23626565,75.06342184,93.42610879,75.13362445,71.57748946,99.33869513,129.6274436,127.7865899,128.0305855,121.7155128,122.4658042,120.6484561,123.1336425,121.4249918,120.2105251,124.2285553,122.2455993,122.8008873,63.46663848,63.41087552,88.64095159,93.83862747,100.6753125,127.1182355,70.49640647,80.07624974,70.79431663,122.5770586,98.26958247,62.08360746,86.67950177,92.71982344,104.7990923,92.58441572,90.52776767,80.22035978,107.8528616,105.2884995,129.2496347,123.9226648,126.1796885,122.6807684,123.2482845,121.0487659,123.0621012,121.4661802,120.571475,125.5225827,123.8365126,65.51997398,42.2019713,41.34771254,51.76662516,48.4316888,60.93243789,67.73291461,60.82596784,51.4398307,52.84275038,108.8925598,125.1251982,107.7661727,98.59086947,107.4422772,95.76639093,109.7956641,134.7191412,106.3879049,79.71311622,108.4042456,105.4403715,126.6146027,135.3065694,123.316735,128.4185071,124.0948055,128.1082595,122.3801435,124.1792029,134.3407773,134.8191758,104.5808961,95.33019989,68.4134907,92.40204777,59.86367729,90.49924059,84.94053729,67.16235393,79.55769042,69.17789828,80.05878129,50.88611167,69.55834304,79.25302211,78.86056579,100.9935748,121.8587867,102.7813233,97.19261608,84.1909042,77.84820676,133.7488285
0.86290756,0.982558904,1.108319703,1.031285134,0.27623751,0.345178308,1.232646047,0.483370727,0.448046317,0.709002149,0.756214907,1.010020118,0.913761092,0.668237815,0.969441404,0.791502979,0.146054188,0.590907588,0.630443098,0.305826586,0.778132641,0.771039385,1.163403757,0.618317318,0.506643124,0.825063214,0.109204861,0.086554265,0.402915126,0.465618965,0.19710579,0.668283908,0.950802078,1.035212991,0.806317769,0.754437668,0.957470498,1.032994109,0.423902698,0.533995161,0.396613921,0.935435832,0.790692938,0.629801262,0.988901924,0.967729294,0.806036358,0.951506372,0.765505304,0.274765361,0.389428796,1.076726917,0.598305774,0.601297174,0.867739588,0.95640049,1.122546276,1.108394408,0.684441848,0.769034937,0.722739936,0.14578451,0.659364744,0.590563354,0.342791442,0.841819247,0.778092534,1.050576865,0.718543573,0.488514457,0.708904221,0.106589748,0.062485748,0.380999826,0.388957276,0.169179456,0.591809439,1.028675631,0.963789269,0.773210632,0.800076683,0.831162692,0.748367563,0.643691068,0.486426144,0.322382819,0.817137661,0.673386956,0.61485808,1.056820122,1.18366199,0.997850795,0.816293442,0.915390341,0.971765358,1.042760685,1.086584137,0.991482182,0.951573547,1.078867266,1.01697576,0.950337455,1.043358275,1.098396492,1.03801231,0.878442946,0.675075561,0.955279528,0.716687775,0.870012031,0.942571882,0.962789507,0.768326624,0.797141533,0.545870161,0.848081662,0.238651315,0.201208905,0.413533283,0.394284056,0.336046487,0.574832545,1.18502669,1.116443706,1.182740504,1.138839851,1.157483216,1.101395783,0.486598581,0.497949016,0.310988677,0.969971903,0.648981135,0.583980727,0.955844624,0.994985342,0.965460456,0.977962353,1.049080071,0.332657342,0.525229711,0.97517465,0.936158991,0.570962862,0.709746209,0.851664096,0.78200095,0.810911705,0.814616021,0.803907456,0.640443347,0.493350011,0.744917278,0.651974105,0.664977604,0.998232766,0.850534046,0.80629156,0.709115826,0.598134893,0.964324052,0.337305348,0.152448032,0.368367347,0.670479064,0.31809647,0.69393145,0.939016197,1.114808386,0.9288701,0.969197874,1.075844417,1.132496332,0.854474925,0.399602439,0.407169902,1.072595916,0.466643712,0.521274222,0.832271947,106.3207784,112.4073288,104.6632028,75.6628918,123.285391,124.1812769,94.11645219,122.3088242,130.2125977,126.7631734,90.52855599,77.96473557,69.7108698,123.0370194,127.7862101,91.34122089,126.9750256,130.0857133,132.1019194,121.7097338,126.4538454,121.7235241,82.05597454,125.4856998,132.745992,77.64877239,128.8617303,125.9852782,118.255844,132.0458076,127.0324992,131.0308722,78.19298547,78.74692051,84.32928773,82.49096774,112.470648,102.295108,125.2640495,125.056073,128.073046,72.31839422,127.0654068,121.2951317,91.08699501,99.55738885,120.8614811,110.7926752,68.22548503,123.7748176,124.1960071,98.12769482,123.5509396,150.6938048,84.22236719,113.6140974,74.77906349,83.93187228,121.0078988,120.6036091,115.6388907,129.9603844,128.0377864,127.1365123,118.4374947,122.3171803,138.9464863,82.25475268,114.9829127,144.8280747,94.80735922,127.2069497,124.7383171,119.0982446,117.4559083,124.7678543,130.9751174,77.21586808,90.19529079,95.22064403,93.92407474,126.4231661,112.9671729,129.7906426,125.1860004,122.8825451,96.53977703,122.7079546,123.1514878,70.62783933,81.26611144,108.525825,79.3826654,43.42259542,138.8533394,131.0911154,74.00134574,128.2704332,92.66256371,52.07628649,48.7367297,51.31727931,75.38939823,72.30931828,96.00300695,68.54551208,122.1401424,95.89429437,92.9592855,87.31465901,103.4313294,90.59271611,87.11127188,66.01304415,121.5500743,70.50281367,121.1165992,131.2001969,123.8858162,118.039804,143.431803,119.4273026,55.12764955,69.09741698,70.28977825,71.36480667,101.8692931,122.7198763,121.7588941,125.5744803,119.8913919,95.76714747,122.3544609,129.3930794,58.03341468,70.20225858,124.4047893,82.70426073,98.86128795,125.3460664,134.3560153,58.67146969,137.6924882,119.4913707,58.72108192,49.21240354,57.65115393,62.20204874,71.73854896,70.42053483,58.22720068,128.5086177,101.3747781,105.1737763,108.566814,129.4080651,96.05256052,57.84088389,79.74458876,121.2389636,62.22362558,142.6227624,135.9254253,126.9606531,109.7080453,128.8989206,102.0354459,50.22729518,76.61850089,63.56751323,76.29257267,112.5546426,113.2420183,138.7592886,126.1047414,121.7391231,131.3619376,127.4742455,127.8870897,102.3204595
1.042704069,1.180746974,1.115321071,1.225746115,1.296879833,1.021235422,0.820684788,0.873750714,0.357290638,0.329279462,0.793422324,0.536177458,0.733731792,1.049242144,0.602495245,1.337037626,0.589716703,0.71360153,0.208743544,0.368518788,0.152860176,0.63076095,0.553588355,0.557681357,1.042522326,1.173156522,1.155557364,1.134254194,0.993092405,1.160972976,1.095036847,1.172283796,1.185299968,1.207858391,1.300338853,1.122071596,1.36242367,1.213802187,1.007211151,0.565273014,0.603953807,0.331730457,0.289625684,0.947887142,0.721109755,0.771268844,1.065673479,0.538419961,0.841186878,0.421560833,0.161860861,0.132935747,0.324933602,0.604556745,0.414597376,0.731107943,0.904339243,0.864013086,0.708898282,0.625125784,0.821175201,0.729822404,0.670828005,0.677256205,0.913333441,1.114771549,0.883686317,0.84276872,0.408313712,0.594900127,0.108560607,0.124132288,0.303448426,0.49086009,0.061580873,0.292883082,0.358563848,0.249153547,1.358922517,0.383303036,0.514243375,0.186905123,0.338029222,0.124910046,0.579375023,0.738316073,0.645598297,1.01579367,1.654511587,1.639414093,1.421248107,1.598695696,1.677039704,1.592578433,1.767403629,1.704590525,1.577317908,1.658964837,1.75102613,1.608868152,1.32116991,1.019732526,0.882378091,0.295652951,0.291839199,0.883571644,0.858819399,1.002220138,1.128335991,0.696622001,1.455348533,0.830007538,0.39214092,0.134444258,0.200918752,0.181875493,0.806296413,0.442364706,0.498893714,0.460776415,1.14650633,1.034273742,1.099453685,1.235870915,1.292764955,1.279814586,1.511693442,1.287475667,0.751672113,1.262728521,1.308655589,1.269714599,1.036421699,1.229584928,0.268581671,0.661141876,0.234920966,0.208515529,0.878899272,0.795102274,0.324212907,1.396278512,0.618191925,0.640184037,0.750436214,0.259566233,0.732760961,1.003089422,0.815082859,1.023577103,0.662788988,0.640865376,0.358684584,0.337677108,0.321109368,0.586649386,0.423554821,0.800536094,0.615463585,0.916248881,1.283149516,0.444253674,0.389699863,0.575130322,0.897509029,0.763966998,0.415983353,1.172829808,0.626441285,0.400045298,0.889898454,0.866264053,0.771500339,1.281550021,1.341618064,1.331044939,0.862070781,0.960310805,0.515359657,1.05193062,50.22790212,66.9221415,59.87795103,56.77700016,72.64338213,136.4503638,137.2908853,147.3370215,122.0167823,121.3396458,116.6000172,135.3472757,127.7954891,139.0698507,129.8637502,89.09503596,138.8102594,141.4301845,123.0409525,121.5927083,127.4304631,126.3123209,124.3612783,134.6922502,94.09539628,67.17414287,73.97787288,73.17261991,75.51962827,64.66128251,79.36025657,76.2612477,63.58690952,59.8051861,67.6436895,55.01794383,79.59682787,154.609201,120.6734025,149.8002742,123.6845596,122.2582565,123.6087302,155.1807222,127.5264853,135.1065132,94.83440912,124.0720179,143.1583107,114.2133183,122.4923415,123.1709701,128.9456898,127.8917105,126.5304064,103.8414086,76.9295112,92.05080652,93.71066416,92.4194725,76.51640976,85.50096048,76.67386994,78.97623638,61.13239566,59.74399602,68.37648292,104.3463103,88.32485608,133.9612698,119.757769,125.3792588,121.4764198,125.242631,136.9853906,136.1079783,130.461755,140.7374987,101.0208133,134.0615717,133.192748,126.4273502,122.4722554,126.6734678,134.9422504,129.5207493,127.8929576,95.71094346,61.68388509,67.95161511,57.23077899,70.18235788,46.62795682,51.17482553,65.72873955,51.91676657,51.416542,56.25591479,60.17288373,54.69760782,80.77597037,104.4457637,98.33833995,127.5297703,123.1101964,140.542444,129.0615542,128.0495953,130.3751848,140.2390966,116.568287,135.8838794,127.4089686,122.5157842,120.9705104,133.3933823,127.0557889,115.3811192,102.6383852,107.0418065,79.81193484,79.01190272,113.0260218,91.72589219,70.81311374,82.17515627,74.17566197,70.38659034,82.65576177,82.99092314,67.25730248,65.85636361,97.8347964,80.59552656,136.0345677,126.5517134,120.1516775,129.0092028,127.6173306,131.9156755,141.2971013,70.73954304,119.1355868,125.2728045,95.02598951,126.7870319,105.6478499,93.49871844,81.38008008,135.7866118,99.20052,117.1947151,132.3429885,118.1419542,123.8322025,143.6406711,117.4250459,107.5161825,126.1071287,103.3654375,89.62517308,126.1438795,104.1793543,125.1485971,127.21549,131.0171236,122.3655647,130.7555025,133.7301442,127.360493,131.5513132,125.2149233,120.0183776,77.60290417,52.9588665,57.8488217,126.2923242,131.1087757,134.8399849,117.716383
0.520277568,0.4491501,0.34942986,0.523865624,0.83658845,0.764534203,0.776364081,1.018035607,0.623086133,0.388866282,0.395519386,0.330276376,0.085401488,0.127055256,0.128027842,0.14069534,0.388710412,0.156153883,0.593558588,0.79333483,0.737726495,0.642409463,0.707659378,0.680588981,0.254348466,0.155349842,0.664815897,0.487095304,0.333838797,0.52287441,0.795398441,0.852094083,0.709020331,0.801918774,0.649173647,0.321628812,0.609194951,0.217895196,0.086616361,0.224851889,0.10407396,0.145294394,0.406879252,0.105156235,0.717571733,0.668377806,0.864195433,0.64670274,0.622830954,0.681085343,0.242707962,0.269995231,0.646937483,0.539692114,0.39382573,0.516416887,0.907173463,0.637577329,0.832139466,0.948373991,0.586517844,0.36431259,0.515886848,0.2672951,0.102889316,0.696730018,0.289653937,0.600494465,1.110141009,0.347317874,1.290240545,1.2756032,1.044270511,1.218958133,1.477113035,1.342010126,1.132948428,1.080367337,1.510547817,1.353677494,1.205431667,1.363122498,1.650649344,1.459909865,1.41548899,1.263601203,1.290197685,1.353802981,1.677537284,0.775385829,0.393067525,1.2016307,0.48905308,0.688811986,1.213071471,0.703487201,1.307688692,1.44621473,1.542679507,1.571095369,1.642967674,1.646408059,0.583527559,0.743097897,1.467482432,1.319982782,1.215840155,1.697446768,1.752493359,1.529671057,1.473939497,1.497474005,1.407621218,1.146241922,1.452936577,0.88332669,0.395566811,0.428583443,0.273940648,0.281706753,1.048240933,0.468780254,1.375780337,1.502536564,1.428946993,1.230212993,1.371336302,1.281389465,0.357859166,0.377712613,1.274727676,0.960580233,0.690057754,1.038550305,1.37095006,1.587995733,1.478733615,1.741875489,0.759342253,0.403242956,1.123348325,0.592488332,0.123475851,0.356231761,0.108766149,0.146974793,0.489583105,0.1533636,0.859971817,1.339904332,1.328853645,0.95946188,0.823453889,0.91784796,0.299542798,0.462511478,0.658918445,0.512594335,0.422458855,0.447616826,0.548773848,0.606680156,0.586387374,0.61681041,0.524284274,0.349208654,0.49978434,0.320649741,0.129936693,0.300806995,0.097854413,0.107101283,0.406620089,0.237738906,0.382784531,0.498203931,0.644769283,0.568295277,0.463506688,0.515945017,128.4707916,123.7576248,132.9952786,92.24092273,88.04141512,57.24800706,59.31481068,68.73954198,153.8437576,123.5738689,122.1279491,112.137709,125.1862597,120.9309254,120.6176528,125.9346302,121.2295942,123.1125076,126.1192949,81.8988523,57.74437864,115.0842203,136.2582876,90.87146468,123.3422636,123.4370312,130.6604003,119.9627801,128.659893,102.6507817,96.38451226,106.6632772,68.0657768,69.64648888,137.8669534,116.7876052,122.1132746,119.1864449,126.1434899,121.190478,120.5289916,125.9408986,121.6522539,124.0642883,127.6692561,58.17628837,48.51543753,114.1590138,131.2705303,91.27983416,123.1977696,122.7407476,124.5892409,120.8598115,132.0096735,115.217722,102.5107732,69.9727878,81.4588864,85.34508601,141.4265542,117.4954524,122.9245969,115.8365194,125.4725042,125.0780578,124.7726177,139.4775307,131.6615887,141.1289678,74.53601677,39.80753733,40.03737678,161.5671847,109.2592861,63.14802346,143.8102238,137.4619736,63.21420901,136.9518082,117.6574936,54.10367573,45.06621238,45.75572075,48.69227907,46.73237197,45.72909501,65.78290289,116.0209442,130.5616859,139.1787372,127.5559553,130.3689427,143.9785042,129.6611648,143.3825464,98.03734165,43.25072793,43.26806587,80.79201195,67.31397176,56.45210728,126.8160553,130.3882577,73.67722498,143.7781766,125.8726201,57.14518385,47.98390777,42.91125938,40.77045604,46.69619579,79.58834416,99.53103967,140.9620202,140.1268029,138.9028271,121.6248492,122.8978681,127.8823735,123.04135,127.8183115,122.0569433,62.91346503,63.39245646,135.6618622,101.4195217,69.70822502,123.8702139,123.8678935,93.63697518,136.4430776,130.0782978,102.8956339,55.35511705,70.00076502,59.5211649,69.00587464,107.1269655,135.6008288,129.3730887,126.9421238,128.2180766,121.0000187,121.5732394,124.2599326,121.2783766,123.904779,123.2997173,73.39597514,71.53179279,135.2065847,133.8791978,73.12810945,124.4097801,136.460362,100.4231166,118.7322133,130.9656385,104.7996867,105.3313936,75.02566556,135.3884321,126.1648741,108.4180135,143.4268955,122.7903904,127.436771,134.9414223,120.9584007,119.7797434,130.2491927,124.1324399,124.086773,132.936947,157.1580297,111.7506594,111.3830478,128.93087,107.99094
0.943287922,0.19515946,0.599372452,0.546194075,0.140165893,0.605455901,0.58447055,0.689375246,1.000624269,1.194134591,1.171190796,0.879840535,1.162251016,1.200614571,1.237406096,1.04984695,1.154278498,1.017662061,0.958570669,0.840988805,0.622946285,0.819715193,0.275466372,1.159715036,0.565943425,0.505880146,1.021333349,0.432433823,0.87683597,0.452776039,0.198161709,0.740406409,0.816874573,0.607130111,0.890831424,0.989580684,1.244015605,0.953320334,1.160326742,1.184846126,1.144866721,1.09801138,1.161512091,1.220307624,0.727881836,1.153642822,1.034558006,0.630347982,0.650246676,0.572644881,1.131489953,0.74606338,1.064985386,1.020278391,0.327474181,0.440284391,0.274139653,0.180382425,0.858702917,0.524586138,1.13477227,1.063072309,1.232342022,1.206034036,1.26480547,0.833701277,1.048623383,1.267401363,1.297155081,0.996152161,0.71705214,1.238086348,0.829085234,0.585031119,1.040360564,0.283345659,0.880430046,0.400880382,0.578036141,1.076333026,0.224164003,0.803661678,0.593543335,0.169967721,0.643642527,0.517331078,0.590519137,0.841910768,1.073224529,1.102945766,1.068753754,1.065164723,1.238267201,1.141501759,1.010344205,1.019008116,1.295148707,0.938149597,0.689354431,0.591264121,0.613836332,0.510051835,1.008853473,0.651978759,0.6803814,1.150263243,0.54361267,0.725078428,0.497405664,0.238069453,0.42239338,1.027409624,0.667556074,1.052736442,0.835379503,1.1578717,1.223709311,1.058962847,1.061377153,1.244838135,1.325930044,1.197137508,1.139118107,0.881357602,1.200500688,1.211899432,0.515259684,1.030916621,0.425653577,1.186735244,0.768065614,0.763530946,1.218369413,0.254727271,0.501077861,0.521638386,0.183040437,0.834219714,0.667696766,0.856285525,1.188014768,0.822735567,1.000007663,1.113158,1.011617039,1.091571401,1.140935038,1.059082924,1.025351739,0.940331973,1.014009344,0.590056877,0.578907101,0.78952026,0.273544036,1.010037592,0.3542885,0.493683769,0.999030356,0.263319948,1.225058353,0.403268829,0.187458696,0.696024562,0.750116455,0.607831335,0.886933571,1.070118078,0.809936632,1.086368377,1.059917325,0.879234963,0.881457197,1.01617515,1.134892298,1.187639551,1.15257396,1.011848013,0.824077372,0.759750707,116.4110043,122.0901392,135.6673287,122.2090277,125.8875909,115.2915297,120.2240273,116.9471485,119.5131747,83.62323291,79.67634825,185.8224402,89.71127714,85.59555639,86.5518702,93.71529805,76.15409822,121.4021538,115.7332982,116.7235948,157.6614825,129.0166213,125.1588103,125.494388,123.236546,121.3419485,96.92659286,125.9914076,153.9777811,123.8500362,124.2678428,113.5839108,118.3420639,125.0531873,84.99217642,105.7532307,78.89230823,114.5011694,109.0970467,74.89608363,87.70951554,81.23485503,60.93598115,94.39084853,95.75677402,126.7103256,105.0032692,132.637565,127.6045895,127.9650832,121.037915,119.1547441,119.4777011,113.2635014,125.5447426,126.7612576,121.7838119,127.700567,116.4901601,124.140747,91.73489075,117.4415101,117.3870609,83.21789124,95.87396392,98.16623484,88.52381891,73.36085224,114.1927921,113.9662659,95.33294847,95.46046221,113.9767562,133.1931101,128.8388467,123.2630438,129.9259364,123.1602958,119.2963589,119.1446412,122.3015648,137.4281208,122.2286457,124.9572034,114.6758966,119.5701196,136.2718976,102.8364978,140.1666866,126.9718413,114.6000334,104.7282777,116.3999493,69.07061608,68.79325084,67.37681424,102.5555262,91.17991772,123.0229973,178.9166164,128.548124,128.8419888,104.1969224,100.2474947,119.0995747,98.81351205,121.7583093,129.6927552,124.3217026,122.0568457,121.0215759,119.0215864,131.1177416,78.15884586,120.1910627,110.790465,95.42159708,74.98746044,86.59192126,70.29062511,94.18082875,78.62028088,93.86700467,85.41781704,111.2707847,77.74051549,131.1580805,128.4117327,131.0449683,146.6137458,118.889693,132.7587378,107.5920389,124.3414597,128.2803316,121.8327639,126.750293,115.7020655,120.2919091,125.5541568,121.4056878,114.9277089,86.66135623,96.08546626,71.85894636,75.86924422,77.56706548,89.43520352,86.83364618,111.7423365,93.85042885,114.2372496,131.963156,126.0674943,126.2584815,109.4438188,126.5532967,121.0785255,104.492664,123.2303724,130.8196346,122.723568,123.6016813,114.9956147,127.0559045,127.0992603,105.3533897,99.67820646,81.20785177,92.35718073,70.90644776,53.8558557,53.71795174,52.69534847,53.34422238,68.53237013,73.41200411,113.0874398,103.8625256,132.7526124
1.096240918,1.009556893,0.980611929,1.139038802,0.939853947,1.14183463,1.024903328,0.921806013,0.784352236,1.041054264,0.908985414,0.651650134,0.827720628,0.386111879,0.996675261,0.62730009,0.717681656,0.910208249,0.25203177,0.603933863,0.647675709,0.129548211,0.727353936,0.640683522,0.933044864,0.979908118,1.186035923,1.130845173,0.997055998,1.232835342,1.243279569,1.041088255,1.027728937,1.160112285,1.114703133,0.803568712,0.822078932,0.564725945,0.660238345,0.285067557,1.325354521,0.52131029,0.607142265,0.171083452,0.340333912,0.933073127,0.352462747,0.202205075,0.639030662,0.752533673,0.591382027,0.814579294,0.950790864,1.218112023,1.195931211,1.099057868,0.722697207,0.836850406,0.884143863,0.794454078,1.202333347,0.889499103,1.036414734,0.774110889,0.560966715,0.769975037,0.501737845,1.051245508,0.860022745,0.744199137,1.11769125,0.274758055,0.603818707,0.433663029,0.148052978,0.795158629,0.735628002,0.860851989,0.93461591,0.948763344,0.781535357,0.915620815,0.797393342,0.916962119,1.191697818,1.223583736,1.083012684,0.384691129,0.242984866,0.582008985,0.386506942,0.591125257,0.113883618,0.911938537,0.269452568,0.351262934,0.941181999,0.231766195,0.668251291,0.324090869,0.326979956,0.562832747,0.413503243,0.721815477,0.352062863,0.200039172,0.219228212,0.329514703,0.351578959,0.417420925,0.300363083,0.173973551,0.541508835,0.77360465,1.036416498,1.1893423,1.004390382,0.878272522,0.833487056,0.687863317,0.541390643,0.551867271,0.959934974,1.120444793,0.529738443,0.745705272,0.720875839,0.400663347,1.07914331,0.959587538,0.898524775,1.007423048,0.943314101,0.822935029,0.898217743,0.665185591,0.735571805,0.643327457,0.692159569,0.875988005,0.867616996,1.07048192,0.755219272,0.932563258,0.878192196,0.496741385,0.996095538,0.62729338,0.829096658,1.127756632,0.511920639,1.181779462,0.796882379,0.320258352,0.810905769,0.860231298,0.892428544,1.111476237,1.137290767,1.01162515,0.975979405,0.984365598,0.825892796,0.989034798,1.039248345,1.02665114,0.990822246,1.08692979,1.077119631,0.974835427,0.871599662,0.788047336,0.758601333,0.974447379,1.041905104,1.07757022,1.080662852,0.53201489,0.757067491,0.647707469,148.9751716,93.52680708,113.533098,107.6919805,125.2909634,97.01912962,122.8505502,135.3799239,123.2085908,104.3256356,95.99661756,138.0409822,124.5215878,133.4719127,115.8782434,119.2035184,123.1731876,112.5995187,125.5862465,127.838178,123.6207284,126.9295554,117.5926702,119.0149329,119.0428372,109.0259356,120.1946604,103.5741713,83.32909217,83.54568112,105.5832519,94.24756362,93.61693356,70.4953574,105.8732323,86.53669683,136.3919597,138.9965805,125.8137008,126.2421069,67.41092026,127.9200246,123.1064118,112.5159095,126.7554146,125.6062725,121.6794509,120.0647988,148.2067068,136.9065691,125.9925232,124.4657031,125.5555255,127.8448461,123.2608898,129.213993,122.8063961,123.0025158,122.8519367,125.8814019,125.0640464,123.7116727,129.9126194,126.666265,122.8657614,121.8054629,126.545238,127.0185585,123.0417119,131.6339242,132.7867416,122.1345992,124.6343767,121.1428943,119.3586256,140.1790862,131.2672255,125.8047385,132.6842499,123.0530492,123.0578262,123.3261357,123.0038538,123.1908992,123.3576736,123.4345315,138.0198246,117.6545158,129.9262621,132.1083105,128.8790011,125.258877,119.4759505,125.7547825,127.5106636,127.3614267,124.4308146,122.2429422,121.6480182,138.3464119,122.4059639,147.5524333,126.3020744,128.1024363,130.6095605,124.9801462,123.5739882,126.6469456,122.8369551,134.9510466,167.3417386,121.9370735,126.7112543,113.4602407,128.6147974,135.0173721,132.2877901,125.521513,123.162848,130.4125409,130.8660588,116.575177,135.7360664,157.9727489,124.0734561,124.0725,122.4562766,121.7568145,159.1132027,146.5072627,130.9842645,138.1568135,129.2668785,131.7891793,131.0188093,130.4913985,130.7495318,133.5873781,133.7045935,135.9823732,129.1712286,132.445143,131.0118793,130.5725399,124.0083426,122.2767904,148.9842245,126.1019545,136.2259283,135.8331028,129.5047355,126.8634214,123.1153847,120.6929958,146.3658778,144.4635992,136.5481448,132.333591,133.3786482,131.7595375,131.1577064,131.3400217,133.1081024,132.161565,131.5242213,133.6669988,133.12693,133.5445079,140.8111418,139.5757535,125.1428212,123.9820579,133.5312584,146.5600024,126.8286568,138.1401508,144.8534488,123.6985008,125.0389678,122.5403406
1.134569016,1.141520633,0.957831052,1.132583771,0.901876092,0.910686306,0.80304939,0.554466793,0.855953672,0.90243395,0.77642289,1.017040635,0.93420453,0.699830496,0.803564656,0.471532558,0.407670529,1.128544546,0.751443559,0.756330549,0.845682194,1.053176157,0.804077108,1.044457244,0.934959004,0.817349312,1.097157935,1.176869537,0.99328174,0.943724726,0.734041245,1.010806087,0.753740043,0.810941602,0.477128182,0.86014786,0.67146128,0.722033351,1.231710303,0.392410046,1.405752726,1.167761146,0.327203135,1.315935191,1.257067317,0.502015273,1.766024033,0.145006816,0.899138717,1.563341047,1.429519161,1.448942122,0.442350081,0.530994575,0.603645267,1.103441205,1.252018274,1.06865215,1.239209432,0.823712751,0.685875743,1.102301876,1.377296345,0.979703832,1.208354108,1.444598236,0.968683259,0.41826632,0.485472952,0.430332348,1.158707713,0.836001963,1.467146458,1.199676978,1.617868097,1.746899799,1.655230658,0.365420194,0.239033279,1.464880707,1.392857698,1.292203469,1.58471829,1.702281586,1.486427422,0.93425375,0.859101669,0.550483058,1.501356247,0.593459177,0.999381597,1.470287853,0.560146257,1.428881614,1.086801393,0.372582554,1.125659452,0.961011118,1.010028821,1.618501961,1.570050074,1.61289366,1.420960341,1.557591934,1.439555293,1.365574926,1.492344294,1.486119904,1.487092989,0.353513019,1.27624755,1.305392563,1.231067632,1.171645622,0.81578422,1.036796791,1.436996178,1.520639382,1.761852198,0.869550236,0.958275845,0.686555376,0.639858668,0.520564174,0.220297284,0.534232376,1.246287048,0.999005086,1.358550541,1.197672879,1.194927062,1.157625021,1.25870106,1.591865702,1.639204774,1.129617233,1.287948585,1.2041797,0.875668674,1.32221094,0.357857997,1.749660649,0.644942382,0.795278982,1.600110909,0.528199023,1.486264824,0.805048805,0.426385369,1.331877018,1.272721434,1.012536293,1.619832827,1.55378142,1.572008895,1.593824242,1.635496627,1.446515817,1.554944906,1.6326978,1.73415306,0.997176261,0.869888651,0.733967111,0.846527923,0.73913046,1.163762368,0.965026966,1.268442711,1.165222644,1.190072116,1.356315732,0.984642422,0.857466866,1.183621393,0.672140062,1.169667059,0.954557525,0.524508035,1.134385545,67.43867823,68.46979032,90.15609657,61.92412983,103.5475578,114.3437993,134.668199,135.7142513,102.9615283,66.49367348,115.6246593,86.08771868,113.5734912,137.5061524,136.2926892,125.5293209,134.7133734,113.4499959,116.7803797,106.1843067,99.97985893,96.31512845,156.1985114,156.3458288,125.5932832,127.7162833,87.45007147,82.62507568,87.44033988,97.65480285,62.48780036,107.6044046,169.1312448,153.8323983,159.0083379,125.5056749,108.6461953,114.3427281,69.74399509,139.1020681,133.7649635,142.6816472,138.1512159,124.8396634,135.8395918,111.5291387,67.00185533,124.7875891,90.7864219,53.12557247,66.2695372,74.78675591,94.69966143,127.2213865,160.3372366,72.72736369,87.58731889,115.8758823,91.96278543,140.7071337,135.9510299,85.0114562,58.72611522,132.7066602,92.75146477,77.7710903,146.4886555,129.3925889,123.0544811,132.5918293,159.3925771,109.221326,48.39427019,52.80926831,63.29835857,69.71476466,57.83733759,92.89944848,112.0350828,68.64682266,69.53416386,94.89397628,45.59758704,62.26127602,58.81146063,120.1723816,132.8789417,151.9918992,98.91291786,137.0125108,116.6812102,81.34000695,124.8460331,121.9570781,148.7133338,136.4096224,129.619003,131.0693311,141.020865,69.92617259,61.03770559,57.29179117,48.04561321,61.73627904,60.03285479,50.16562567,59.7752427,51.33661994,61.24558799,105.3506892,84.24019362,53.59465755,127.7664356,138.632661,136.8826703,101.0123907,115.1897291,78.42941347,73.77169456,126.2934474,135.1570151,127.2912405,141.7359973,122.970082,129.3808932,126.743186,71.45161033,98.79491996,51.40465968,47.87290577,43.17742903,53.40082442,51.4776219,74.7936702,45.84658806,70.94729009,57.94143463,52.02734887,108.9843799,134.9272646,141.1329638,87.32373429,138.280698,131.8502402,88.04877958,151.9797028,104.6303336,131.6230254,133.6637807,127.9388568,144.5004449,111.9712819,62.8907092,109.9588679,68.63644064,69.42984398,68.74893428,53.43806282,54.73897168,62.91370021,58.54220095,108.6343053,92.04552491,114.4878844,86.65614537,130.275083,133.4374263,54.44232545,50.62574886,127.1969647,60.15424245,61.64874493,125.8928595,115.7004883,138.8370233,137.5036363,132.6339445,107.8298292,59.50205903,70.3423155
0.824092877,0.854460839,0.88157589,0.824848549,0.741242671,0.802502611,0.885849167,0.805540588,0.639204145,0.864705032,0.688062643,0.887930381,0.657839736,0.775671603,0.757122537,0.786984264,0.821971163,0.863575574,0.708953069,0.608749944,0.871126348,0.739283842,0.722731636,0.695883389,0.818250039,0.840664537,0.790795174,0.645041588,0.679336584,0.586463158,0.492714591,0.670209973,0.754925586,0.697379651,0.661093154,0.622599006,0.598722924,0.512680355,0.890748724,0.56811914,0.750231679,0.718281781,0.714219978,0.844518513,0.611254098,0.754301752,0.55625133,0.595368837,0.592644646,0.747244473,0.794227421,0.792304191,0.673847058,0.720851357,0.794801628,0.944360184,0.714029148,0.946304763,0.811966298,0.65109355,0.871317912,0.706883313,0.856672067,0.853213223,0.858308377,0.831891315,0.789192099,0.934014212,0.775546509,0.787041887,0.852772969,0.715600513,0.651584428,0.82291419,0.707551722,0.831054547,0.796130828,0.840107687,0.887945784,0.845633684,0.72973054,0.808116874,0.723849135,0.905591221,0.759501488,0.883112881,0.740655714,0.829318481,0.858630282,0.852104139,0.696967576,0.858814609,0.958156217,0.754714679,0.803578925,0.7245252,0.857835171,0.925889844,0.696418394,0.810029819,0.758446842,0.813117849,0.684644793,0.876792921,0.803162872,0.84074339,0.708115405,0.752593685,0.842019261,0.866631138,0.702283221,0.812256999,0.678247157,0.741383063,0.831181422,0.864341245,0.785939784,0.596394308,0.699673725,0.739367139,0.784702448,0.781862528,0.705770939,0.625509313,0.656837282,0.786371206,1.179784203,1.07656395,1.435078012,0.848153707,0.871549483,1.285905568,1.204214613,1.454799434,1.435324997,1.485291728,1.448646304,1.300257304,1.471880095,1.509661917,1.371345629,1.296466676,1.302320936,1.320514092,1.103671421,1.431881588,0.527466716,1.227344688,1.454603688,1.241743172,1.352956604,1.075427676,1.22080683,0.933556948,1.426071542,1.500294434,1.435680583,1.492973066,1.331628577,1.101884735,1.074807713,1.380155606,0.781559543,0.259434509,0.795848454,0.822908377,0.79497691,0.962946205,0.741304001,1.426570787,1.218742376,0.949050976,0.653357765,0.556839551,0.575465815,0.523677325,0.552404517,0.614050959,0.918511502,0.784501389,78.72316617,94.87485032,77.26333848,91.08950579,78.67550157,75.82095965,69.44298449,75.95823221,63.48025553,74.96773954,81.89904224,76.21429485,79.93702436,65.40442589,81.4074276,81.98952717,84.66598794,81.24335419,78.15039155,75.96979584,83.41190574,66.21381673,74.57282519,72.55239189,68.5448795,77.50127569,73.88389774,66.18347486,96.45961857,74.83910332,79.96266475,61.09093504,75.00082916,78.61572226,78.3263931,88.16720875,86.13819561,64.42641773,69.24802899,66.98363499,76.31097762,76.53638548,74.19841412,82.98527527,63.27100493,71.74831402,75.01734092,74.3766114,71.49963133,74.4510857,62.95930259,74.48894925,76.08577157,68.33861089,73.50802213,98.59243714,70.42647273,76.43869018,68.69970561,75.10449126,62.46190933,80.76162415,87.96020331,86.18227827,90.43993165,86.62953067,78.24927325,83.96070838,73.84349408,73.51192951,82.005903,73.35659757,66.76487053,67.87671952,57.54614476,62.26227369,70.13998845,72.04304176,79.5196572,88.57225175,65.77648432,71.46679212,82.15265802,55.39856581,90.97543747,86.14979501,68.61620012,63.92026796,73.94921641,70.13253959,66.60283693,73.77578035,139.2034245,80.46334828,80.41600856,69.31399639,82.35821135,87.91839571,98.14435462,87.49851837,71.23113609,94.11054009,61.11000172,68.04833952,76.18242443,69.47418454,74.02450888,74.75491089,76.4101107,85.59286595,77.23824065,73.10879293,61.81886346,66.59223737,73.31002746,71.38600383,72.8620905,92.73935849,74.09331979,74.06999358,72.10193011,69.95568346,84.44495045,69.360579,64.5213755,41.52460245,43.99405879,43.08152555,49.16400465,90.32762474,94.01273568,90.66583262,76.82721599,50.58418966,47.62643507,47.81084793,52.72830343,55.02068148,51.96825304,47.93075425,59.13291784,78.77739885,65.38425706,56.0283712,63.26809692,51.62810092,110.0148411,63.2220994,56.81630235,83.98842442,54.80066443,72.39257523,72.08681802,93.04031598,57.27636247,66.04376082,68.06203274,56.41545702,63.25480383,67.64328289,59.82376912,57.06313196,99.52393189,124.4451267,107.4793511,103.2003896,102.8769113,85.39290817,103.6293422,96.93029741,58.62707511,108.1466504,138.1181548,134.7216696,141.919634,149.0928878,142.9845529,148.363968,99.26544982,107.0608682
1.068428359,1.230495908,1.099698183,0.943153148,1.096303167,0.732812177,0.910141817,1.114808758,1.094406067,0.903611102,0.891576539,0.889145197,0.958199689,0.938625144,0.973286887,0.988225864,0.861246117,1.106977051,0.935720694,0.909007039,1.010468622,0.997860694,0.632263439,0.827254491,0.961511298,0.992373416,0.861715186,0.838929024,0.98140675,0.861486139,0.979918856,0.695334709,0.776102113,0.729946974,0.858873335,0.900952095,0.816320352,0.696670664,0.892430822,0.648860314,0.901630733,0.796605801,0.694958723,0.733166866,0.695727013,0.84821034,0.998921697,0.81976469,0.803685936,0.872799336,1.00693065,1.028976537,1.059186942,0.893944694,0.733873604,0.656334242,0.771178523,0.784303554,0.826782061,0.892452204,0.826456784,0.7292675,0.785342749,0.963352324,0.709247102,0.967751942,0.744166517,0.894288393,0.617931603,0.756417433,0.853380615,0.615595042,0.834161583,0.963845396,1.219195002,0.736544306,0.616984438,0.92645279,0.442529725,0.934277332,0.697799067,0.63252663,0.756719333,0.725283519,0.734945122,0.617562167,0.904750458,0.935494115,0.856221542,1.106513899,1.002024573,1.236770978,1.03986907,0.931776024,0.736576216,0.95100807,0.774631134,0.689715145,1.006358848,0.83570482,0.710008894,0.712663908,0.762156706,0.789526643,0.732595384,0.729688904,0.671728306,0.745705497,0.686023175,0.80372948,0.488695556,0.923089567,0.822825004,0.867349959,0.699255286,0.710981364,0.627433801,0.748949347,0.907210544,0.806617139,0.680063732,0.958413061,1.11472723,0.824687137,1.056064981,1.047304038,0.793609296,1.039144584,0.711409891,0.77678622,0.722441625,0.684656867,1.040047764,0.793739063,0.793826863,0.736820427,0.523407225,0.847852604,0.777117829,0.993045762,0.6849222,0.797222424,0.662708134,0.675624778,0.738703073,0.802410367,0.714568495,0.615321664,0.779324877,0.797831008,0.868540216,0.730325011,0.660101023,0.648625537,0.714048319,0.960349354,0.957026939,0.840421008,0.808598861,0.695808476,0.82406382,1.179890938,1.296093017,1.295370987,0.689775748,1.277409569,0.832663578,1.153374345,1.115973994,0.899414038,0.610269772,0.733103365,0.754713795,0.844634376,0.711630945,0.719084463,0.680840913,0.62733024,0.58589851,0.666268239,76.34185488,65.15646879,72.24701351,71.36590285,92.58374774,73.273574,69.79290863,69.8766006,82.07149083,79.11088331,73.96761843,77.60559611,67.267901,72.44292905,79.86138727,103.8883409,72.18208135,67.16397961,81.96283722,66.34467425,87.94401716,74.17011754,80.9660766,76.90749823,77.10957493,74.42782553,78.13222312,73.51310976,80.5097557,69.39588397,78.77403226,78.51947355,74.23335413,69.76550416,79.46021222,72.76930439,69.30162445,86.26073413,75.95124035,67.91406785,82.85331262,74.4287064,74.95739795,78.99441976,74.55447851,80.77694269,70.57463455,75.54923327,75.45883278,72.62971904,68.68079547,69.76074745,77.49061487,66.23328147,77.66484205,72.71415173,69.90180536,73.89042743,71.69866956,71.10396694,75.7793377,71.88817976,72.8015006,71.25537747,82.28967509,69.07453984,73.03493615,72.24567285,80.7666837,82.19803158,85.46320771,73.44233637,76.0419725,74.00696376,57.15686886,78.84017998,82.08575326,93.67514474,80.64762311,84.02093701,78.13678215,120.4070317,80.60421563,79.25854982,79.50981119,72.73415491,73.06129508,78.67215113,74.10087813,88.31450666,77.01852397,77.96335981,64.09634689,89.70481165,71.47511253,69.37542142,73.3750791,67.16353214,71.09964301,81.96356267,77.89080632,82.68284313,72.63731776,81.9246168,69.97852777,79.1512888,71.14959903,80.47665713,83.23594617,76.92684281,88.76645613,85.82267102,66.17417238,72.1347493,77.83467538,105.5586806,102.4296382,71.16234123,73.06533573,89.77218766,76.92291902,72.73947448,83.63081568,73.9693082,54.66482363,62.72858596,82.24212605,84.27117085,75.39534486,88.57827167,83.84922281,85.71516448,84.98305334,72.55035874,94.69140946,82.68152245,78.74031413,76.79461634,83.88339298,102.3790987,100.4945177,74.13874954,85.77610166,71.37543347,80.46941683,81.46710793,72.57594963,76.58097361,65.9162121,76.29924997,82.17583719,81.20883952,85.63977703,73.26247738,74.43571748,74.79119956,75.82539645,86.80457196,81.82420987,87.13244614,85.35494617,73.69169487,68.03222066,69.77067312,60.47868445,51.02040882,39.33739811,44.7624144,60.05810097,49.99252093,45.16201322,47.31935327,49.31955603,55.32970581,61.27132432,63.10431351,67.80850983,57.72135734,54.29101055,64.25747023
0.362173922,0.339848943,0.356121413,0.3351087,0.343061879,0.288146831,0.391214746,0.379995299,0.384965448,0.341741234,0.369725676,0.418334919,0.507304674,0.531420256,0.375251476,0.402846477,0.369610368,0.37118114,0.298793592,0.299836046,0.359473801,0.460611044,0.395780332,0.418610217,0.335275383,0.353564882,0.389838685,0.344246897,0.313292883,0.328713743,0.390541988,0.615739154,0.468346263,0.72580673,0.266171314,0.339930238,0.346987888,0.417180989,0.375066084,0.412980575,0.406374949,0.474578009,0.367463791,0.337238105,0.333130916,0.34093746,0.367851094,0.35389435,0.35725691,0.32416169,0.295839347,0.340028742,0.375682705,0.338457221,0.802696065,0.518077156,0.369065499,0.356576495,0.310494929,0.401502994,0.316945737,0.36159587,0.341591297,0.339396916,0.314802537,0.394951186,0.301583927,0.434709618,0.318178978,0.382832813,0.3888463,0.540800676,0.427763833,0.383544229,0.668201528,0.434744579,0.407522276,0.310913996,0.378273818,0.354336519,0.342194834,0.310904469,0.304436547,0.445877831,0.531281149,0.552857642,0.520569797,0.376064138,0.373335739,0.592250756,0.40741801,0.443976913,0.401474584,0.459000999,0.373936467,0.525775046,0.611046505,0.41912088,0.363397571,0.358742724,0.360812111,0.324835986,0.344374295,0.355905264,0.407700094,0.484959356,0.366335859,0.483990727,0.389844701,0.733775301,0.443712989,0.529652002,0.459000908,0.347964576,0.438563384,0.73723539,0.874787895,0.599863239,0.73254297,0.37916778,0.300116589,0.367296098,0.321272143,0.287201351,0.306893665,0.433626618,0.409297771,0.488651411,0.521481191,0.880214214,0.730756139,0.434758956,0.422305495,0.751399481,0.965917756,0.824041531,0.443575508,0.405035181,0.621377156,0.5566377,0.740408249,0.28481771,0.353446561,0.364750166,0.405058468,0.309690725,0.310159308,0.377911666,0.318327767,0.37105511,0.417468988,0.343630658,0.295833198,0.430919216,0.40470344,0.365693189,0.599111076,0.596386129,1.058550105,1.210513181,1.348879925,1.120252522,1.47862418,1.140320082,1.088523766,0.918528574,1.158028298,0.987317943,1.154965225,0.849304904,0.4064076,0.043462727,1.367848117,1.02190069,1.648929504,1.065003271,1.484000281,1.248597136,1.593704649,0.519495072,60.52768444,58.71294573,65.90039007,55.37670078,57.87195744,54.16209135,65.98294567,66.2646494,63.59066178,57.56777867,61.503379,57.95716846,54.41585336,68.21863706,53.0171386,58.08392467,80.41778803,55.29765286,57.75485191,54.68326656,62.35553209,67.21349728,65.57965681,65.16459245,64.16848336,56.72470738,58.0161416,55.28996885,57.4477218,56.01641356,77.60727609,61.27023054,82.94506731,74.42200688,55.18458837,56.36611864,57.49083932,64.44537875,62.72520634,68.92450489,63.67263261,68.46888809,62.90476824,55.7874467,61.40066424,59.79179,56.17334918,57.39152789,65.22114651,70.07932293,60.02705516,62.99062975,56.85295737,58.99328624,64.72272463,80.5994581,77.27208952,60.54340582,59.19488248,62.61177967,62.32691589,58.61625359,61.07516068,65.39342727,58.99149468,53.32410798,57.41880253,61.92177919,64.31752216,61.70852753,62.52521126,78.26574278,61.94769591,61.50238598,62.69053883,65.86441811,63.79281709,58.95091045,65.40352021,66.89924909,68.43821789,59.89114889,70.71271846,75.69837707,77.51346644,66.56531652,64.92492572,58.51063311,60.83273444,57.04550758,63.85385981,60.15812819,68.6862649,61.08563034,77.10179507,67.60436307,78.08068572,90.37420182,68.89982179,65.80292418,71.40820863,61.65007798,59.50515947,58.34846245,77.7238574,71.57983921,62.98045063,74.71047249,64.84286919,62.28184938,58.83520572,71.82899784,72.78089022,61.85777371,68.11031633,65.32770425,61.29045328,57.06390025,56.45376879,65.74288403,61.74435123,66.44937598,78.97282985,69.3034885,65.08260589,62.08112543,58.4965482,63.11090691,58.52471666,63.28867717,63.04996586,67.59262214,56.00194741,70.69892857,71.30914477,53.64175152,72.4370017,60.28871716,68.47434072,59.70768678,75.12525501,60.94483994,73.75297011,59.18111388,67.70592727,57.33573401,60.853263,66.2683342,67.45019543,63.29818905,70.19798524,61.67669659,60.03871112,82.58388707,68.54066247,63.56185304,59.53912815,60.27603615,52.66086864,45.5482062,39.27402108,39.85285486,53.34755667,41.04641883,41.44890152,40.74790945,41.69499949,40.66377832,43.00589776,42.02918957,41.50169868,90.61234389,91.7334072,116.5745884,65.19690726,81.19245789,68.47715308,71.37605991,46.73752561,92.18887084
0.589724645,0.516561657,0.564561257,0.555428024,0.618463548,0.572322264,0.573276115,0.531723185,0.523957281,0.539090716,0.591115337,0.516890065,0.588911244,0.569811079,0.528986542,0.580473579,0.594212367,0.586054773,0.600693481,0.543359857,0.628706012,0.50917352,0.562240387,0.578796094,0.55447108,0.510825624,0.587404661,0.570773689,0.550382504,0.575645121,0.581125189,0.526070654,0.525441675,0.588048428,0.515630788,0.482394488,0.564031778,0.546490629,0.531418517,0.60382987,0.526903304,0.532369528,0.567684032,0.524524468,0.551221134,0.542154967,0.456074169,0.466420827,0.468677931,0.55883266,0.568894184,0.54897531,0.483200741,0.45601364,0.531012891,0.584456434,0.555602656,0.577333519,0.565316888,0.5497199,0.569134803,0.523777484,0.539416192,0.456726542,0.548996903,0.486888612,0.635697948,0.572686983,0.562501555,0.528823453,0.625588266,0.569349192,0.56111483,0.552739493,0.592551684,0.561521006,0.570671238,0.614053823,0.576846592,0.471451758,0.538892554,0.510909831,0.567492145,0.535424676,0.565618719,0.548949233,0.567796543,0.496116382,0.500110661,0.503446291,0.536483599,0.5451954,0.525168067,0.503342332,0.585353986,0.533399776,0.5721134,0.619797593,0.516162528,0.711118066,0.576814014,0.662902451,1.046806441,0.9634387,0.407970048,0.38873851,0.522566141,0.564910512,0.525600337,0.51355962,0.474461694,0.388652507,0.345178359,0.498704682,0.467073623,0.609806218,0.720119458,0.441936089,0.369278564,0.468492157,0.402120974,0.55652692,0.473300187,0.55554152,0.590019,0.819382984,0.538596471,0.85022021,0.690750694,0.471791256,0.398426445,0.328534097,0.368940443,0.576884943,0.407896295,0.566641193,0.656496747,0.616839196,0.656181075,0.750292913,0.655912478,0.538303693,0.540028237,0.678566376,0.62972573,0.561623472,0.61983306,0.598580997,0.590502218,0.582191842,0.506252167,0.536928044,0.532491918,0.553650733,0.697045389,0.724355359,0.694287286,0.603207481,0.638140722,0.541539566,0.603540983,0.543208888,0.551747675,0.544916353,0.51704746,0.546965989,0.60011328,0.53435926,0.493671077,0.539893846,0.367837558,0.553098988,0.487439277,0.523917795,0.527593359,0.55103613,0.550638976,0.576998744,0.658803803,0.614137629,53.73954541,52.36723808,51.97364923,59.75860536,50.43777806,52.64508871,51.11861716,56.8714546,51.91158159,58.90667002,55.70500121,52.52954633,52.40998679,53.74298812,55.00977867,49.13088372,52.19018562,58.26755974,52.72359744,52.85247174,54.01276376,56.53393572,54.55395413,57.09424902,52.18121346,54.86751818,50.13344279,56.73111721,60.66168057,52.35430486,55.16422986,51.80112943,63.05017016,52.64653373,55.58828803,66.88252805,51.24491995,54.85732011,48.99227048,50.90632306,59.71983861,52.45452545,52.6516115,53.40686582,51.04180109,55.32359556,55.15186986,56.34915591,51.46274388,59.00411258,50.78774126,50.96747376,52.21780878,51.5906251,51.55489865,50.99604968,52.5119695,52.90987513,59.53240455,50.28984034,53.46068105,54.29923751,50.96063945,60.70705205,61.67609749,52.51069122,59.32761205,50.73590123,51.66825366,50.50605785,51.08139418,50.4022,61.59435365,55.52416532,51.92112416,51.05221616,55.62813457,52.76443819,53.11004168,53.27696413,50.99686027,57.8113549,52.03054338,51.38795334,53.75512699,53.89805576,56.08428216,58.41151971,54.49439773,51.42980553,56.41218447,52.93253553,51.39515239,55.62104353,49.92618756,55.26162969,51.15548491,59.05303746,54.62170331,58.85055124,56.31257947,52.96183314,43.69703382,44.89613699,61.57840708,79.50896744,54.41123435,54.18599846,53.06161203,61.24193109,57.38614849,57.6669692,73.96432659,67.83830304,66.55812434,55.6659453,58.43410656,50.48334115,68.441602,60.45546841,76.47744319,51.95961597,72.39915118,69.06459372,81.29127269,56.04230886,55.83924589,51.8367941,62.05932854,64.39264742,58.18330556,72.20374726,64.42106301,58.14871863,74.12752088,59.06643356,59.30354274,62.05771928,64.11635574,66.5961776,58.61223464,54.82646595,59.14602708,62.52192933,64.99646646,53.01145422,52.10152369,51.66444063,60.8871861,54.44239891,53.46878427,58.88005931,55.12486162,59.52540161,54.76699444,56.21109036,61.09795817,66.45301428,67.01197377,65.47080338,64.64231903,62.41551336,68.45003013,55.07398443,53.91148938,60.24767519,51.47063271,53.23609387,56.61394956,56.04511247,60.58849726,60.74461325,62.7204133,69.20094084,55.39712125,55.80352123,57.72080275,54.26315356,54.1903449,56.68595561
0.461001029,0.486953119,0.699172391,0.360506468,0.393662445,0.381091421,0.268553465,0.302119542,0.27652348,0.324815432,0.468757846,0.397739738,0.60529798,0.530974545,0.374958327,0.303263304,0.249174096,0.795937937,0.491639682,0.515862848,0.418108833,0.344787157,0.332674298,0.274479572,0.354446763,0.368064441,0.351094614,0.548538683,0.504175112,0.475464913,0.346498342,0.304886849,0.27430602,0.370262447,0.331884363,0.343669632,0.46641308,0.350756126,0.296337639,0.317784443,0.410170062,0.330414671,0.323758684,0.474621007,0.2637935,0.525555767,0.478146471,0.422912209,0.395620906,0.345562095,0.324382459,0.424497499,0.378735382,0.619990489,0.348308927,0.548906727,0.545367174,0.456609106,0.682142417,0.351053504,0.413048438,0.415006113,0.508802871,0.395501088,0.460591514,0.549573685,0.5459113,0.381400756,0.335937327,0.450934123,0.40055744,0.46214688,0.498957665,0.489627705,0.450918814,0.51220339,0.513363906,0.464436421,0.433561906,0.385773047,0.424544081,0.65971353,0.508306209,0.443831761,0.577944636,0.755767433,0.803105575,0.921913868,0.946826701,1.001112256,0.810227748,0.972632753,1.025281592,0.947597908,1.024356056,1.027244078,1.010432036,1.018408673,0.970790698,0.843598076,0.808821597,0.937146075,1.069299066,0.932317672,0.942377661,0.867066885,0.879835866,0.900391468,0.852053584,0.820207448,0.912548928,1.000525316,1.068569835,0.940720864,0.839501476,0.924121942,1.016900223,0.827888341,0.824785282,0.817402215,0.40912264,0.437257418,0.497336646,0.387276268,0.451573122,0.415842729,0.385552597,0.381628188,0.398462848,0.55533987,0.359948688,0.677558103,0.445962171,0.421790272,0.459883772,0.463657541,0.376347282,0.32076139,0.350532156,0.440068784,0.390931204,0.52381393,0.4847311,0.567287058,0.437366553,0.419815915,0.438170486,0.420612126,0.433369018,0.49270194,0.462072703,0.461152705,0.431807318,0.561337191,0.451538672,0.49062193,0.433888524,0.580560131,0.485478958,0.49538794,0.458358976,0.467256883,0.368485587,0.415644621,0.415885306,0.386934177,0.465386299,0.550225161,0.593681524,0.475866028,0.507010741,0.44445275,0.361211897,0.412778262,0.342986452,0.419958698,0.431659941,0.574519891,0.444048204,0.649185356,62.73952944,73.29969104,61.63734263,55.44489872,55.99979651,58.78502212,68.68250411,67.95949164,57.14145381,71.66540373,61.20917053,63.40350701,62.00598352,69.36975709,66.42143847,72.90076242,79.05021715,58.69734022,59.86803533,73.76492507,60.93496492,64.72807669,72.90619748,66.90030773,67.21754411,58.87304969,56.41838251,57.58864034,51.08478076,56.34944216,67.60169769,64.35531413,73.84189386,71.33772855,58.84057238,55.92528216,66.03753235,95.98785344,77.34813907,64.74005079,59.53587412,61.8216066,68.12120942,63.59972496,61.91215038,78.43249923,55.73501177,55.58565185,76.14779948,62.3421792,64.92471996,58.88421748,55.62138104,64.69723874,66.98243338,54.89085352,54.92674006,65.09486852,72.50470794,58.42893868,67.06702725,69.75191952,61.04063501,61.97942853,64.62222687,60.53266684,67.4534031,56.35032355,54.90178332,58.00849782,49.75357588,61.67505924,79.49025748,57.18688719,79.33792349,65.68075091,58.62868379,52.12847858,61.62652329,56.85626337,55.18860929,67.21988249,63.03861302,72.08625184,78.05453505,82.62907518,101.2908015,85.19035987,70.64787847,77.36794651,87.98769897,60.92595587,56.14455906,60.36928833,55.19703052,57.80630021,62.03179218,53.37694036,52.72015413,58.3322705,61.60128795,59.9455846,59.43557278,82.25493433,77.79621738,53.38883052,68.74961725,59.0708425,57.46857162,62.68778319,55.5246829,57.93494148,62.76580343,54.45311794,65.31087113,84.74199809,60.44959536,53.8941342,59.7096333,53.07474,60.70329091,59.59339228,61.62317233,57.21408437,54.57930341,54.62666446,81.0894561,58.32186054,62.75922253,79.60278579,67.78475495,52.18102921,59.11362072,50.17749775,57.89403411,60.68979165,55.49003436,52.37153426,48.14209424,60.08019115,52.76125502,59.64286276,54.60015132,59.03262294,53.25195358,65.91259541,52.33999204,50.70091065,55.91199966,54.38183912,55.57831488,51.50627336,54.7244268,59.32517613,71.5852159,53.64564678,64.68293399,57.57130193,55.77016474,52.5182321,53.09445598,56.44760238,53.68167347,51.30606749,56.00985934,58.51647345,53.71123635,59.73906783,53.35279472,61.63763506,63.46382967,62.99828673,65.48451929,57.26259248,55.18598805,70.62362611,58.17045336,55.44194759,57.08231045,72.75632938
0.523339098,0.471069285,0.47297857,0.448526314,0.457283714,0.533314906,0.484373137,0.43631149,0.443439497,0.4370349,0.465517236,0.596049949,0.609246601,0.446047416,0.460890893,0.439122917,0.441427958,0.435492059,0.429139257,0.509253602,0.517130825,0.54910232,0.547625957,0.504957771,0.619371529,0.520716157,0.465482523,0.524625391,0.513035706,0.573847075,0.509078082,0.506708825,0.523186584,0.566675908,0.565480095,0.542094157,0.520914566,0.516440178,0.496818634,0.57108578,0.577382681,0.550117681,0.562908211,0.457441523,0.511029618,0.567155085,0.554070252,0.518973678,0.556434145,0.554118161,0.554316456,0.574800017,0.534525096,0.506950171,0.577809695,0.561812013,0.541762667,0.580158227,0.565692349,0.641133347,0.50899226,0.624672487,0.648254382,0.506258285,0.584421959,0.595140759,0.477967755,0.621699,0.558578584,0.549563873,0.693377562,0.781896058,0.987330227,0.70991549,0.577906056,0.567771961,0.550783339,0.384338907,0.430158074,0.401608293,0.424628476,0.480746083,0.475452759,0.340854691,0.332327615,0.313848225,0.39622869,0.465064142,0.538884425,0.446344309,0.396613367,0.369418364,0.394346607,0.482600657,0.487212217,0.556159914,0.66032643,0.457319736,0.391842208,0.423898344,0.43117547,0.483980144,0.602945541,0.575554021,0.532352581,0.465910281,0.465870675,0.44005591,0.546778641,0.626551922,0.558866755,0.555270253,0.567334351,0.457323371,0.449360604,0.551847334,0.581452446,0.672596325,0.603112585,0.602468542,0.422555307,0.415324661,0.452760074,0.431015284,0.435612778,0.459309283,0.469756067,0.4935247,0.542996243,0.515357071,0.474891891,0.397693929,0.488696816,0.561240718,0.475926345,0.469649733,0.462713639,0.446322447,0.453510151,0.485226966,0.527667867,0.473933962,0.459933694,0.601681973,0.464853268,0.418185968,0.444410108,0.485690904,0.469550498,0.546208527,0.570609212,0.514625897,0.640483456,0.891283866,0.732808362,0.554159531,0.564717181,0.656300589,0.556804137,0.603276958,0.528544929,0.543547533,0.585931526,0.529025563,0.586742142,0.564885867,0.638861408,0.561677437,0.530002372,0.552509374,0.615852223,0.548221991,0.633548876,0.573578442,0.591342467,0.643339665,0.582423218,0.522659198,0.636353323,0.639412653,39.49640591,42.03802023,39.44800797,39.11283929,39.22548256,39.46169027,38.97703592,39.51624311,39.02310297,39.19609989,39.80907632,40.5139471,41.87373978,39.69307326,39.36115382,39.17881012,39.05654497,42.50407163,39.49803848,39.92785724,40.14100381,39.82729494,40.27615799,39.52698759,44.36500212,43.2561839,39.16576212,40.18868787,41.01636341,44.355377,39.6141027,40.6947361,41.72772642,40.41938825,40.20497749,45.59180852,41.07057242,41.53015555,41.43406495,44.49501351,45.42981582,40.85852922,41.76141236,41.80066694,41.45626069,40.89109778,44.79381983,44.3628263,41.02760623,40.89663599,41.18977886,41.68081911,39.90700526,40.93339813,39.92776396,40.9342003,43.41464196,42.53401514,43.01057164,51.85092093,42.38271955,43.58245658,62.62972878,39.54283663,44.05770775,44.17221604,40.63138405,41.23558199,44.82169753,40.00134893,42.25651742,49.08077549,48.67219844,50.79378632,47.74197335,49.73308212,57.4414161,45.27269807,46.2348063,43.70135899,50.422878,47.75781531,49.21884533,50.59726915,43.48724531,46.78472972,47.2897379,42.55781201,44.09320313,51.22925631,43.24784442,42.42230608,45.63496401,50.73616811,43.46028181,44.02105571,42.12939147,43.77013066,43.12785554,42.820867,42.15160893,53.55308259,42.4295275,42.10441986,42.39734251,42.21532035,42.26824054,42.22687366,50.74045432,51.28614052,42.90167155,43.27446578,43.50745137,42.61738661,42.59836715,48.97512267,49.98065901,42.93316358,42.74703824,44.33782913,41.30477533,41.583458,41.55467209,41.58078621,41.54865477,41.48161691,41.46330926,41.63706705,41.49857136,41.42342081,41.46373392,41.42636985,41.43288692,41.53674749,41.49486466,41.56999926,41.54366945,41.46224493,41.47756199,41.52586609,41.43286964,41.42266487,41.46270512,41.54534321,41.42784036,41.42833163,41.37829545,41.50401604,41.43273552,41.80409745,41.60528463,41.48967026,41.78354874,43.27737434,42.4574265,41.47659258,41.42676081,41.70311696,41.15461728,41.60956092,41.3094764,41.32165622,41.24230192,41.31326274,41.2146842,41.27420803,41.4717266,41.38259075,41.46554994,41.38732804,41.43265279,41.29044241,41.24450151,41.2688387,41.36723473,41.31847462,41.38329857,41.30405076,41.43136532,41.25850189
0.847660837,0.776208589,0.938360026,1.043935463,0.549053622,0.519162614,0.763204826,0.669095147,0.87836503,0.906816714,0.777561425,0.890392465,1.030515208,0.79231921,0.578080946,0.830786865,0.885692079,0.814068066,0.799855817,0.893117557,0.851277038,0.787963987,0.79605918,0.761816094,0.9240168,0.815613013,0.819284923,0.925672761,0.792409653,0.941999166,0.407818575,0.760886819,0.841918893,0.570742243,0.419426903,0.626752153,0.792407908,0.512423901,0.607083959,0.761656435,1.022885613,0.801506614,0.693510261,0.768538373,0.799147156,0.663673042,0.782651292,0.834222321,0.726396679,0.538631577,0.818638687,0.871971038,0.819652982,0.878919128,0.624730654,0.538702739,0.602875219,0.657329597,0.629054246,0.898490067,0.776128791,0.917367303,0.781648182,0.908527038,0.967580874,0.63912601,1.036466001,0.837108849,0.99224487,0.825959697,0.905589005,0.779992768,1.073420473,0.927399331,0.975637369,0.701778103,0.820719235,0.746455279,0.890139615,0.95901291,1.045331386,0.570577249,0.703553478,0.882064601,0.427159733,1.089694044,0.887035621,0.992724462,0.930011153,0.641070418,0.908008063,0.711142572,1.070144237,0.976008919,0.924791004,0.944394873,0.683401946,0.775601537,0.876601403,0.936861344,0.885012834,1.034321238,0.977774303,1.004382592,1.01356057,1.008374662,0.917216559,0.867788641,0.917253753,1.027466907,0.296834631,0.98972936,0.642573961,0.753898211,0.578471085,0.599012871,1.077531378,0.795620659,0.77584417,0.605059334,0.82907002,0.706503646,0.611244944,0.662087096,0.786047507,0.611156121,0.465761149,0.782393648,0.911987838,0.791143778,0.65566324,0.674973626,0.71288534,0.418918765,0.662342594,0.711336237,0.725485837,0.655183633,0.763962385,0.637756994,0.774168521,0.564538253,0.710673652,0.682891501,0.643998737,0.357897165,0.568615632,0.768974066,0.330934787,0.869912135,0.624199504,0.786100328,1.041219624,0.6862931,0.585837475,0.614081768,0.545274781,0.485648882,0.965228313,0.596640478,0.488486631,0.601576897,0.460963706,0.683534076,0.822575404,0.942510309,0.831312574,1.01104097,0.926718422,0.996395724,1.021520848,0.759105148,1.462401226,1.654195174,1.183423254,1.085924854,1.197735357,1.176835744,1.286591183,1.155686931,72.92543733,74.1087353,105.0033412,108.1773705,109.986364,96.18135436,92.04153911,95.44593192,107.4990945,104.7426672,93.04132863,85.96207633,76.44941866,73.30225622,73.59573895,72.74501781,56.15211541,59.8633201,62.34725267,77.62858357,102.7219277,71.74546471,87.37215953,91.69281019,77.96666825,72.432437,90.00941352,75.62169665,87.52964505,97.15817119,71.82233056,88.58968066,99.15103345,81.73011019,103.6094033,106.9708502,104.2874715,95.53969221,76.21194857,108.3663299,91.04571467,88.90246434,97.79862957,79.29275446,74.67881977,101.767136,73.91092881,87.48087963,73.2930866,63.96702145,67.15812975,104.7506548,86.01098796,77.0936822,67.84912809,99.46179045,120.8054095,78.98422191,143.0001141,73.18609254,92.99984258,76.97164499,91.98109795,92.145264,74.91542833,72.30198691,80.97416083,91.06277419,68.29451197,70.47610897,72.79012607,66.45790253,82.88340975,75.25360012,93.51998613,79.41009433,93.1634069,86.40953309,68.3103874,79.37261107,77.78108967,89.48358127,73.01501539,90.11514127,98.87152386,84.85911195,69.79380988,87.85910967,67.52537201,70.97276025,92.02878121,94.76942482,90.02747687,82.22166931,79.90210587,75.78150967,84.51797785,81.38339459,95.4735529,88.67013668,86.24909027,94.36298905,86.12453552,96.34088267,81.66314199,90.51507719,100.9065351,103.1211867,101.6794443,87.51302105,103.7324555,80.79128103,72.27245812,113.7293958,93.6719423,109.5616444,93.00570835,77.7643025,112.4257956,71.06206252,67.61665936,67.92498829,85.98492843,69.03525821,91.28786957,113.8955478,113.096206,67.03918628,88.42527004,65.28704478,79.34707927,69.41336958,85.90616243,65.38211997,101.8093005,85.48403148,74.97138754,91.71850313,96.44447396,82.17398797,94.84468459,61.44360726,78.09886968,81.78830673,67.24082456,66.19566868,67.78423444,87.0385828,93.60185699,74.58205598,60.67168199,74.87697599,88.92410497,67.10317592,74.9171534,88.39066821,103.9566727,98.81819559,85.49082329,104.1011001,93.19271126,106.9127862,90.93817603,102.2415427,93.46793847,86.81091514,87.82170483,101.275398,87.723208,98.15853811,59.97093536,73.620151,70.85252568,56.04706044,56.59457508,98.53349549,79.55342963,84.51203976,78.08576592,80.88418682
0.489431844,0.735338418,0.521791686,0.689882055,0.719974112,0.727258273,0.725222608,0.580959001,0.760932386,0.621472302,0.602542555,0.697876179,0.621223451,0.652234951,0.637951276,0.737833568,0.628220591,0.542264007,0.657240059,0.676482521,0.740427009,0.711280056,0.797845626,0.606390483,0.630942884,0.709033962,0.487491151,0.691576871,0.5972232,0.468082487,0.693053968,0.732700483,0.635395627,0.696346368,0.583780029,0.592532715,0.793280229,0.668866274,0.531213077,0.719994654,0.696101317,0.678638274,0.649387774,0.676436708,0.525561292,0.352318686,0.688140469,0.724437711,0.681679107,0.670163305,0.645718487,0.429963898,0.575540545,0.484908701,0.570552095,0.675116588,0.615391563,0.618406739,0.610745574,0.707464878,0.638343536,0.747485441,0.757476883,0.679168501,0.713991469,0.520576417,0.463626157,0.655561057,0.68019222,0.63317559,0.638203705,0.632848961,0.615225991,0.6946446,0.716618431,0.571018113,0.706849521,0.519437512,0.598782344,0.451948675,0.522118734,0.57248482,0.917911868,0.729330034,0.656198336,0.704123744,0.614620813,0.54754295,0.592897174,0.682904197,0.830535462,0.834641897,0.878384211,0.854760698,0.87020069,0.797275653,0.482759133,0.733859294,0.719709516,0.728528995,0.604421617,0.743000184,0.683264547,0.741301527,0.731477372,0.496283469,0.494255449,0.529435123,0.633073972,0.481375901,0.398174206,0.542547069,0.532177588,0.497520379,0.652866746,0.566846431,0.672802377,0.670226708,0.530808429,0.579509328,0.621636288,0.529522961,0.665003034,0.701031315,0.681573213,0.553237411,0.689128215,0.726419953,0.583033575,0.572280724,0.769033249,0.998434859,0.717517846,0.644892372,0.71461355,0.753706996,0.541206815,0.553122791,0.421972298,0.594209845,0.499672323,0.533765275,0.617995714,1.226242873,1.261336829,1.128900825,1.346936335,1.186648207,1.561106878,1.107212163,1.240251474,1.424315398,1.384509014,1.479297735,1.174800566,1.110827143,1.246955323,1.62880006,1.635503014,1.409608301,1.448624654,1.346341725,0.993472911,1.254215983,1.203185093,1.265716227,1.47166088,1.264723065,0.999239815,1.143136152,1.399726285,1.217789381,1.110032802,1.287560756,1.031152507,1.316563569,1.250634751,1.309048992,1.31527788,1.351691193,68.31948382,64.01459398,59.70919592,64.12408205,60.26190802,60.79966301,54.97121034,72.09381512,76.43578945,63.45795151,58.84715813,55.11135229,62.29287637,69.51261385,59.06949047,60.20668153,64.57923796,63.27194052,66.86432384,61.82505364,64.06103678,59.64705862,71.6837027,70.40524702,62.53036595,61.57572548,59.48487516,60.21132969,62.65624909,57.47318894,70.3294557,67.35222617,65.67572133,71.94051077,60.83219759,61.20309876,67.0038963,73.62975158,65.49906442,65.07470356,63.2626328,69.4710363,62.41017226,81.71390267,65.80585569,77.4324358,59.43187633,60.42690535,60.49005515,66.40126582,62.88386489,65.43429752,80.80790046,81.66992927,61.37501975,63.98959025,64.72425793,62.32659328,58.00165041,109.3263656,61.92521942,74.98902014,72.94982826,64.63903956,63.70706429,80.44349088,62.50237697,61.54218631,58.5462531,65.98132295,63.4656866,69.90805866,71.79714935,61.12638802,61.63266024,62.97088923,63.88080175,66.28468151,62.23852633,83.44377099,63.57930932,66.18334287,76.33357293,54.66307525,61.84415248,58.91193659,63.84771938,67.5508192,60.61385422,62.30102806,59.90318961,53.83474458,53.04670964,62.38013395,58.06814852,51.76352675,45.46154999,53.46390995,50.56762296,47.50431647,47.24898689,51.31231413,53.35538563,48.77313659,48.29554615,43.58202588,45.88150076,46.72628985,48.0515229,47.37369153,44.53294285,45.38138102,45.75842504,43.01372484,47.93957704,50.93667847,45.12078513,49.49562473,44.9414083,45.44063179,50.45260728,46.09149327,62.44243039,55.00488478,52.25795357,64.5356337,56.99959345,55.51654521,69.6225793,54.8206712,50.70139627,63.40170429,52.22168444,53.64515638,50.53880615,52.82612159,51.78887596,64.55286554,47.03694209,48.82861393,60.14009527,46.07390848,46.96891038,40.30490624,39.32609958,41.02097967,39.22126449,39.020324,41.05643702,39.01138727,40.56470802,46.05247225,52.64912839,40.51197406,40.76688543,39.72354785,39.09916799,45.05264882,42.30265176,39.9218438,42.38887102,53.32695688,41.27126959,43.14555175,40.07260715,40.14863844,40.93305333,40.81379208,39.48389967,40.00258276,40.28964713,39.89952985,40.40571708,39.93235692,39.67259998,39.83899467,40.57826528,40.24851228,40.91200393,40.48570734
0.374438648,0.303241949,0.301691697,0.362769441,0.462837618,0.304154821,0.374610918,0.365226947,0.292679566,0.323504128,0.322492411,0.35541864,0.24325383,0.270237106,0.356252891,0.343709006,0.291775149,0.369324521,0.313423362,0.286492141,0.293469208,0.267670891,0.352041544,0.270399754,0.238735608,0.357665734,0.26804379,0.316531382,0.268125754,0.284451015,0.300635252,0.311170704,0.459348322,0.427759721,0.322700689,0.374202975,0.289834572,0.319207153,0.325064849,0.283559385,0.26374902,0.325435918,0.30907213,0.19097506,0.412794018,0.340606168,0.311075074,0.245084301,0.394329317,0.411613707,0.477655948,0.46110178,0.323503866,0.271069283,0.216127205,0.435338394,0.350280879,0.35089681,0.289596728,0.351235818,0.666848527,0.491557275,0.424087269,0.287983051,0.29559488,0.501257514,0.338318654,0.327589567,0.397283538,0.33457631,0.44543416,0.423110304,0.280347986,0.437822544,0.446579468,0.347848095,0.653226758,0.679243504,0.487161468,0.526995207,0.556066598,0.484620499,0.57794972,0.44587738,0.483787337,0.544187811,0.491969249,0.476436046,0.426928155,0.549211458,0.564684183,0.52887316,0.624341388,0.664923163,0.520965283,0.494305663,0.44176138,0.550364783,0.214045213,0.359418713,0.291439398,0.325539309,0.328451139,0.36599877,0.397296845,0.243382045,0.332160274,0.296716358,0.328120474,0.366081728,0.357782606,0.709145914,0.463245437,0.364191561,0.307995131,0.3134093,0.33159019,0.251619142,0.583328463,0.450325769,0.358521024,0.274793946,0.207834425,0.288364156,0.296479695,0.357384223,0.353509525,0.306708783,0.341418487,0.401240672,0.277826094,0.398812653,0.295958373,0.412758486,0.295663509,0.226287511,0.348662486,0.364344467,0.432655184,0.341506917,0.373658822,0.363061856,0.425247829,0.43367353,0.221755017,0.339378874,0.317152212,0.395503182,0.47637422,0.341028998,0.33017341,0.428132598,0.364382443,0.411986367,0.366033217,0.431494863,0.442543346,0.319267931,0.272722281,0.328675914,0.443422703,0.455868367,0.354832674,0.408611275,0.292071095,0.313924816,0.487494968,0.59135453,0.419889937,0.48271412,0.593521167,0.364059506,0.504522009,0.430534178,0.471526883,0.374676438,0.632482662,0.47222752,0.458254951,0.460672423,70.12232438,51.98620806,67.98211484,49.11296891,51.5649008,53.34552,57.34343143,64.00388583,60.20942431,71.02557818,56.592274,52.37299825,51.64905096,61.14010474,50.25839272,52.58690567,52.20234824,54.37939244,54.59848062,50.22428943,50.80611526,79.33739475,53.2638309,76.68912083,53.90232275,51.67863916,53.37526278,52.03731206,53.0363971,67.79669589,58.65306531,62.40109691,57.91159025,63.68449275,56.36903954,47.25880544,55.95996471,50.83492207,52.23930452,61.62168468,49.21566808,63.61848284,58.31899645,51.17541155,49.3816921,51.8161269,64.6631801,54.28827269,54.35033412,50.09306818,78.21861964,98.23648663,52.34821912,46.75981967,53.62632137,52.62595276,56.08770565,47.52024656,47.53480885,51.32839036,67.51986988,73.22626538,81.91372675,56.72289449,53.58230553,51.8424554,51.21155648,63.69363732,50.31874543,52.49635653,59.10289545,68.51797859,49.25006486,56.4122875,65.71531788,80.00546038,101.8853307,84.95475908,105.7047631,86.94275144,69.81074589,84.48289253,68.9046488,74.26125186,74.49348285,72.52609251,78.70498154,70.66475601,68.14130673,74.10142471,65.961644,65.24788267,75.12064967,84.68459494,92.15491467,74.49674816,103.4329827,86.95656544,60.81613582,53.8106609,48.67290057,56.90164139,51.36344824,71.57328503,50.36372127,48.06747116,51.84943552,48.16769822,56.32545318,51.55519877,52.41115336,67.6830539,64.49511413,57.40304329,51.99306603,56.05195457,62.8606482,58.69845366,76.49171839,51.35079926,50.06976776,67.52445455,52.86617842,51.47668532,54.7453117,46.78981447,43.59961375,48.63522532,54.06048806,79.28895843,49.13509206,45.92933637,51.50892821,59.04646748,52.60012377,56.77513936,55.70505609,54.93846714,64.91981792,56.66069279,55.36210774,52.22515153,50.23766786,62.4695484,58.89936524,63.57484486,56.63523652,68.42084503,52.13427562,50.52580267,67.74960897,58.31387558,62.92136767,61.43866991,67.84375106,60.99447072,52.74742558,63.12456163,57.18016068,60.10151355,59.12920711,59.19055439,61.36506548,47.94729669,62.24529031,49.93199078,63.90083873,73.97367167,55.05313669,48.32304297,60.14535667,63.53361019,79.26949217,54.54081102,74.20736052,50.84456205,66.91595039,68.44480105,62.86406876,59.09164018
