418,0.958909414465694,1.08896644637581,1.18137596149405,0.813763847871515,0.763705995524772,1.0315956432338,1.0060647344927,0.981357831010151,1.00914201360905,1.02407622598616,1.05184965563675,0.941560296103417,1.03948622937541,0.9073591835557,0.705435106858926,0.921887529765922,0.88944155437839,0.633794390370259,0.879810065928829,0.758280677524604,0.999029300391051,0.951198990479104,0.712111336172576,0.789855406069578,0.820841481063924,1.09506633900668,1.26728621850778,0.88137277753451,0.943367897571001,0.850655735168278,1.06877750353575,0.96346897726741,1.0905534027117,0.875049733181006,0.880049618852011,1.0061032311435,1.09182648530481,1.01561464007875,0.879169594739194,1.34187182665564,1.29913537176008,1.01843773662348,1.15344199567872,1.05368722500269,1.12117754481119,1.26801259050278,1.04535335983877,1.07894680085355,0.912684113801076,0.801044592989081,1.01374892357723,1.04136780890161,1.11875399991986,1.13123969681188,1.05140588409831,0.966391422905614,1.15099439846813,1.07930818067663,1.23173816493513,0.668334131744146,1.11672889623422,1.52592141833992,1.02772071777789,1.11643968171272,1.0335524396724,0.994594359235931,1.27094745716705,1.34294825524642,1.12631976906022,1.20516899416675,1.27415593226895,0.809445995664495,1.23696131164905,0.920113117790304,1.03121385506877,1.01374573560563,1.0571212739776,1.04181970618399,1.26812582936381,0.936754928626176,1.08630563681174,1.11014495801324,1.08517583723703,1.11119451155168,0.863261393416299,1.12005210885044,1.38284108052813,1.42596370504747,1.32242720623782,1.45528723260684,1.45535827299333,1.39900575329021,1.20617962136878,1.18448723221913,1.0608165590232,1.01782315397581,1.18592345794676,1.07501863132574,1.05922120468797,1.06120149482727,1.16883896660399,1.14333006640338,1.42945100419083,1.2085338156535,1.31504708826194,0.932388348085875,1.06069189406012,1.31758046857184,1.43824075229783,1.29971485630281,1.1032534513808,0.977927141364421,1.03680758559343,1.0242290095014,0.821419789725049,1.12885974660793,1.33246637061725,0.873631934191309,0.776400498746697,0.96898075805582,1.34028522658515,1.25318076670491,0.804247822943291,0.441554234159084,0.58283407803743,1.56894734803785,1.07822100200527,1.14279373956794,0.865828218951933,0.769626825494118,1.06255192748105,1.22738450270283,1.07345499900498,1.26835252741075,0.824644379698739,0.802439170738246,0.974273239257896,1.03829047367789,0.83459443456243,0.774195807767369,0.775793452662255,0.757642428201805,0.952741515386614,1.11662022954433,0.951499144456929,1.12976774322248,0.945781810759427,1.28016328098549,1.32589375983282,1.25982512805925,0.901122510400984,0.862823987446551,1.04065006727563,1.26793761890135,1.08942210336511,1.36759675278093,0.99670993427712,1.00584761496892,1.08642792628339,0.902722517650601,1.10200300657501,0.846304281766762,0.958903292899726,0.884841538768233,0.970491921308437,0.690966081428421,0.510961754918843,0.683745669757474,0.732617019979141,0.828115722517774,0.632509746033302,0.693116116459171,0.524275999762807,0.916310023672248,0.67992798693666,0.778404948532023,0.505758979562398,0.614890755321448,0.811296498588395,0.594121519455369,51.8224532785284,58.7409737337079,59.5786376178546,47.6739484919184,53.5874272748358,62.7159572996709,58.4452171447806,56.8463968459268,60.4836767096857,50.5048286756731,52.0391663862828,57.8803549512932,55.4017060169958,51.9486945004319,48.0541101035702,47.6082376437249,44.5139676323292,45.0565518744606,45.4665338513307,44.5760260017381,48.8060176142611,46.2535909600623,44.0916804625861,45.0557000626279,45.4814814100068,47.4562956073231,48.0543187327579,51.0326991700801,47.432096639938,46.6331164318462,54.5703944732503,59.9050325283027,44.7610634087145,46.3721528062824,46.7341759098617,52.0556085932213,48.847912158172,49.8063707796806,52.6207637988755,52.1993549855004,41.1093149108744,47.8436363897865,46.3811182310437,61.7891055155102,53.9540774564725,61.0290292798941,48.0005755602328,70.9695489124112,53.2782823055015,49.8277475352467,46.5323777838125,61.9874153204819,47.1812613373215,47.371862758438,48.0892090468232,48.1544182712745,53.5478975104622,49.8847345569329,53.0625628393892,51.7249961497394,54.263352466903,50.254726890782,41.7637745822427,49.6978985567976,54.4302361053658,49.4589841854882,56.8574765001524,54.9205951541447,56.0957252180681,52.3966329148085,46.3974252626329,45.6675986652112,50.6595745929848,61.8706772219659,52.9916619452079,53.6148720846705,41.7852272738304,55.6946396025101,47.6404865263021,43.9513114434196,51.7922675522557,53.8341195263958,57.4020864566551,55.0599311964055,49.8178126736733,46.7963245780242,46.4041587212,47.4331215904137,43.7580653282642,53.6546120948215,56.3387637968964,49.592536476367,48.1986298063597,48.4479640024048,48.9804813313136,56.9811879454513,54.2685247405318,54.4212257652461,54.7298475779696,53.737482887179,63.6184287399776,46.4617712409848,46.8866737924217,51.15481679566,44.4749187091087,45.1455731866449,50.8002387891236,51.6538564977529,46.7083869730636,43.258456807102,50.5344508684085,48.8652720853857,42.4783778642595,50.6047146895509,48.4992855567961,50.0289172356542,50.3446387715479,48.138225294225,46.0510913867136,46.3084609704287,48.584169758872,49.2302090386852,44.5426036184725,43.6056470393887,50.8791128420255,51.9552573415359,42.8114903497056,42.4644427508231,57.9458962107251,51.5981731977258,47.927230117615,43.4653988448352,48.376125129871,46.4236353717857,48.9382103893333,43.6371042059142,51.2687218568348,51.1933683584572,51.2838448134936,48.4477669653157,46.7448817463419,46.1969141576757,50.327081303639,44.773567139342,49.5819772607176,48.2569566421635,48.4553736044723,47.8632588460963,58.8038859099153,51.2331683312868,49.3940474315258,54.5333216405357,48.2633724701437,53.8651923007495,46.5043329386087,50.6338354813809,55.2833098800243,48.6648153353837,50.8828647045598,46.9207447064786,50.3055629819929,50.1701290799291,46.4612576626617,45.82006944019,44.9066336696563,48.0964596696101,46.7456182967269,48.160081357168,44.7046334631452,43.935669354459,47.9265785532546,44.0768311422728,43.2785119907565,47.3809884020488,45.1916998966592,45.3358801204262,43.9161395079278,45.0015252177111,44.2891760231066,43.6876955762614
419,0.618149329611915,0.832553919388403,0.647768539886835,1.02806558691432,1.43470530453218,0.866694395090191,0.790327473116035,1.24566477861022,1.2265905125132,1.1745260112003,0.903196946327377,1.02046419743571,0.879154771050969,1.1098339243268,0.995757958412668,1.17075561354343,0.772611895297804,1.23162391575294,1.04214201227506,1.04970341196718,0.905874953407137,0.833670956947888,0.880007800711543,0.953402707097355,1.0392035819775,0.993034588386987,0.552209159463729,0.602234594807736,0.685233132067757,0.611661412492066,0.924817478007932,0.608835987813177,0.74693600241092,0.679119451695057,0.790534001691454,0.852532335100898,0.927026759893659,0.924397499260946,0.988584733777873,0.824883121305544,1.06564244182428,0.890097538183884,0.740622395269513,0.950672343309545,0.945259837982775,0.998239049901088,0.89737175147261,0.697859254885146,0.664317527207242,0.96401457314432,0.963900327842798,1.04187113590996,0.686998120142461,0.746426690091972,0.814005155556035,0.917835929194221,0.87481125548568,1.25577638362378,1.46257243048084,1.42492765743658,1.49123321614463,1.1559309537824,1.66784031111382,1.37601012486077,1.5841862792174,0.370179139520358,0.306082857142051,0.761855591098472,0.647477143726757,0.656740861394383,0.644904599257865,0.667472009908309,0.597436287221653,0.599520537121867,0.685419964483471,0.793122408151943,0.797349791522148,0.840992711551761,0.850006012334359,0.761896924018189,0.770586133547461,1.12157976371021,1.12747900613126,1.10707727684671,1.06928962336048,1.00297741376992,1.19090661257774,1.03963578506645,1.13182720397659,0.95479509911485,0.98573251011648,1.25398878074938,1.3785762883333,1.23203421820895,1.11848635190077,0.505421261526292,0.535468866786767,0.649335998920185,0.54694121436537,0.784401245288365,0.816721817748547,0.767664325173228,0.764535631436587,0.8267712450556,0.859318504678392,1.04538984551281,0.387523898719402,0.659321118770107,0.769281178806238,0.865841197556313,0.907904663793794,0.989359920494516,0.803538849237498,0.791150857992063,0.810908563930388,0.784851157445692,1.05276236445177,0.477147961042325,0.688552471336066,0.945341764264227,0.886415015026428,0.965579903761093,0.782721373143457,0.875914812910274,1.04960360098832,1.01173808539477,0.445573715322741,0.697642420817049,0.960028557616859,0.860086577614982,1.07276912675645,1.07882284664925,0.974684912488015,0.985428646511698,1.16795156258699,1.01502503359962,1.01311101134124,1.21616992141584,1.3042919391468,1.2353577893904,1.38676693851323,1.22110258760405,0.691316042752795,0.649569677904347,0.796378391229032,0.747938842684145,0.893176700584317,1.20088493183143,0.896914243276178,1.00236643215124,1.22100457429233,1.19241101333572,1.12404613558516,1.40137604424405,1.25839288645763,1.20806621129958,1.18673951937195,1.29064951729122,0.902319942610257,1.09741999866796,1.05938614330071,1.05858998750396,1.35434789755202,1.18923337425232,1.11376509193529,1.28389571360292,1.18407455735481,1.01868465579332,0.863207120990503,1.47686483325139,1.14582602614837,1.29767027370927,1.1180185488685,0.938964756333617,1.26983407322447,1.13707856949591,1.21531164901138,1.18044544662824,1.30071763109457,1.25446660951332,46.8371462286568,53.1304799581626,49.4868097479629,54.4724223875497,53.2906421663554,46.3432076565673,48.8461596629798,46.4729568282306,51.0837382018733,57.2558953827327,51.8341373481085,45.7991286961953,51.5694357696667,49.6488699782773,72.2288613674866,53.0537664469976,49.3125245702744,70.1681863078857,51.1541704075054,53.9957653158742,55.5444678822589,48.6881156463723,49.195947424763,47.5572571886159,47.675810740421,53.0131549039368,45.0357825951547,46.640307749649,45.3425451694509,45.4005922423777,46.399565650315,44.6804297634406,45.031193582325,47.4488140019749,46.9035361710333,49.4698547908727,50.4708396066942,59.7719451501273,56.0368081604859,56.5810806490949,66.036244506011,66.3934141787576,65.6483916477787,66.4349215334774,69.558090203094,68.4099117412539,74.9231373902633,63.9213331798296,71.6344437034624,63.2449011973832,63.5927611615541,51.1813762998144,49.2082451948854,47.0434576329995,54.9033693609675,49.071566697507,48.2228980782109,59.7349609270097,46.003657806433,42.2368296661632,42.154226660358,41.8011290528252,43.6029899421206,43.5860647846267,64.3005422442208,124.009245821901,129.528729151078,112.539821182291,82.5636725012936,127.14421450755,106.857495741985,132.353950677635,132.627197017902,134.431156695753,122.130300234164,137.529325901704,119.333406002158,159.285307716295,136.067185093826,93.9200939949965,69.420370686508,109.81289911335,102.226571086462,83.3402149742586,58.8607975926821,75.7253521947363,62.5531529816139,79.658717181332,91.2934562331559,101.801007846427,113.144275146983,81.0309316840595,77.1620470501438,105.091495018117,82.9955751232388,91.8248529276402,120.863048080991,152.402312511295,141.619574031957,145.818824631312,127.545139355556,133.742458236406,137.522443994006,119.427050847397,101.065211001532,87.4514069820423,118.815783356193,159.123591774644,146.081869775307,133.599749383767,122.938640415358,102.132420786187,161.932966255253,151.021459935246,128.189871694475,113.414209085205,98.0667451842962,127.950486830629,148.421012918842,115.215790815537,146.370974032934,122.904818903227,121.567656460986,143.521121224124,117.61130210853,111.179460617082,89.0227765786098,144.773156072477,131.600871544239,134.133846708491,103.369662935688,92.3122350753908,107.074613511001,95.1847493268501,111.282776636573,107.606582413421,114.634830615839,99.4550447810613,86.7533827906499,80.9108424949833,62.2133237997614,70.3468138223999,134.064115757225,146.344785039063,149.470028218592,123.953893995552,119.377887383312,106.583645513805,120.734687003604,122.150859224158,108.292870336737,90.8609201172775,107.654687098683,92.9203356155551,100.028439946371,98.2364520229438,83.7608006120982,92.2053701782605,143.149608238113,98.0234779357671,104.010121911071,88.1125276581902,76.0536483046538,106.08536880516,92.9620568863145,68.2923733964489,81.3834184352374,93.7036788288044,87.2411016330724,74.6502378168217,97.5447628269413,128.827044356317,121.207129988239,112.255752874664,109.535396086498,72.0322750892242,102.138065523528,107.256075243167,71.1547749762387,97.9754450377343
420,0.816022072333474,0.534104335220577,0.541244759525853,0.521684765777904,0.601871904088078,0.658306581572353,0.873750579512193,0.899313695404627,0.817670480865085,0.780927039309636,0.716376268503933,0.781312655318724,0.826767834989401,0.953720724268894,0.739097361630218,0.616027543038376,0.301862884524504,0.471874692763263,0.174552590332688,0.145945716958061,0.244369427666927,0.101394780354512,0.244263935887637,0.400676666493735,0.172777375200639,0.566313390329015,0.842062770071635,0.85915809514671,0.921197789753322,0.794831728648861,0.787354880286874,0.842975894783905,0.330494843928951,0.556877398349983,0.702874415290342,0.680253218817595,0.700765034082299,0.807791191905698,0.864345796074142,0.777766039509364,0.835267035058793,0.862253903599125,0.827087583761608,0.854124170331787,0.791883238767478,0.960720197652382,0.906446281146181,0.302650366634549,0.749477437002665,0.194252483285944,0.073220007955973,0.397873593099517,0.084139298690219,0.068332244074978,0.332720823693797,0.134787645397379,0.533849401845462,0.692916141326679,0.778931814398389,0.729517266296225,0.731736714721969,0.822138225242555,0.819830713498384,0.339676004149776,0.644688725067737,0.734613396078686,0.606449397267877,0.841203996312881,0.811102278381801,0.886093833816896,0.835180218439789,0.766687025724765,0.809013882147719,0.764313562994403,0.732854549963564,0.710735103522113,0.905141715713743,0.800959224930873,0.280357044882078,0.837589575792102,0.282913027850949,0.075289388986183,0.479868381075538,0.082620406788496,0.051265323435383,0.307758616921718,0.134876257600647,0.421233558355489,0.781962479732593,0.931218490708911,0.515947985805887,0.773719467372622,0.806270758697734,0.787311676382557,0.46452920475908,0.662262358830081,0.847695288104985,0.758571660928193,0.879708425776706,0.805780145897786,0.902371794512521,0.799528269151841,0.889325353682679,0.896467514845297,0.770025713754638,0.88274274050912,0.705571299945617,0.756458584487721,0.759138690460749,0.29757228200775,0.689672352508142,0.26022240254375,0.085422748981739,0.384387798869346,0.083421186966399,0.051493434486287,0.423949481148741,0.147602740982293,0.344481942923731,0.720192005006939,0.879976049087222,0.746556816444681,0.820420165447811,0.783978044604762,0.840083829287337,0.395055540622585,0.850668780701144,0.890989060339685,0.718035163978725,0.841166328516603,0.932631061346364,0.846341098584688,0.678589343163034,0.620500268746392,0.797774067856578,0.825297812486655,0.755187293483227,0.707191223879317,0.825926184314425,0.655988140973831,0.327713056531331,0.640954986946831,0.472407837766691,0.467359402145908,0.398675450815064,0.559153656077426,0.273147071451881,1.19421560087679,1.13574349982454,1.1054248395804,0.794557786196163,0.575663595650092,0.556387709148302,0.675266913322285,0.607363251585586,0.580765563755942,0.855254841287786,0.85751196977376,0.97384619313039,0.930306563587176,1.09751105360048,0.557982161961196,1.45419333099862,1.16354620497789,1.13457418143576,1.00800242715389,1.26327602526537,1.03483150949585,1.25389146749735,1.13162086302418,1.1620718333212,0.847791115138616,0.975586540108434,0.328350401650558,0.083686932679816,0.235633674759696,0.15185976908358,0.115633334988586,0.924657558866181,0.233470755272111,122.545995566344,144.538114550441,125.412479193841,109.868131898456,116.360350875007,141.097117452307,81.1379936793973,110.813326900554,108.062800548655,112.654364891268,108.835533936475,122.078863945771,67.8464024487995,74.5960162806312,59.7816974382379,123.177233765312,123.947909254966,128.283331097688,122.461054777167,126.512165885029,120.591220765557,125.123676595224,122.073780628031,122.201084774285,133.119963004801,119.653574638378,136.038882118053,92.8729145607474,60.8360327933315,112.406236058126,82.0413736608162,130.368857087462,133.729614736024,132.757020797695,117.704101756342,121.784915506013,138.815286260096,69.6863328235888,66.8742421271196,74.2656161234364,78.7519661983214,99.1160161778822,93.7384672600897,68.3919608236561,66.9558613787974,84.3685269611321,140.062067202027,112.3452094918,124.62772384337,123.499779382473,124.698663540604,122.241525556214,124.02544651442,122.983909698288,121.988959529389,125.923826419244,121.490075857534,108.574460142354,65.7664381298892,72.4343592464486,115.818138772907,126.102565821146,130.190146121107,129.782653334603,128.28444012834,109.592487511829,115.753328855441,123.518849113356,66.2109584852705,87.2626842645841,109.858617641913,118.997727084803,106.865890997773,116.032306035826,96.1443443424056,100.020141217223,104.331633478556,132.700414127703,114.723237623252,119.321980186429,122.729624281221,124.226233037112,122.101756188887,122.124645825947,122.706620117146,123.151285424553,123.419117875539,123.746670749418,106.249798237492,82.3838118578419,96.3142927848157,90.6643418545229,124.072331883428,120.739172394223,142.87583780874,127.23132058558,130.560650395402,111.760737743631,122.616901845538,57.6016435751956,97.1155280892013,84.5334083778821,107.757608180279,87.0726602745609,73.4863878312116,82.320793152883,62.253022989028,76.0583368222407,135.287782786518,115.005935827777,120.031704327924,122.01426143125,127.015161611657,122.705277438179,122.668012989826,123.318409023478,123.432998830962,123.790775870685,122.741599010167,113.530609103804,65.7708729035432,68.5664431844696,101.125930274803,170.939983207423,110.395910616632,135.718611248853,129.836518192753,117.21083489997,117.616869792785,126.632883888682,57.6610702662199,111.965690207775,88.0470431570527,79.4361364590541,81.7737160475578,112.969362952391,98.9741892327257,93.7386184412074,86.0962320865399,134.255351309304,126.968041264847,120.867748724403,126.782534730993,135.341115296056,122.311026884626,123.761989832385,131.333610094136,139.441115318818,139.967837502727,58.2467331835434,45.1456982554684,41.3908529014906,41.0367836372227,41.0673567699366,40.8514934657757,40.7740111790742,45.8650080040218,42.4614339282231,42.9070584974606,52.1937759606818,44.0814109228619,121.718660841386,76.6731248093495,59.7148247618436,82.3082106814819,49.744260303751,47.0946568840623,91.4078322917024,79.4231196033797,84.2169910892863,90.7290134075571,64.0396299264895,127.446109831605,122.571461027636,126.677873767605,122.898263578669,123.705566885159,128.153224059362,127.05977568886,124.726793933723
421,0.85770336970723,0.761707947744951,1.14975917594227,1.1390470312335,0.966335962616113,0.869493789161697,0.719874672384506,0.936932217352858,0.805376194985192,1.02489553031772,0.668020193055269,0.640573727304021,1.03073601663187,0.920927299634291,0.523029446166796,0.432292350341309,1.01425815997859,1.05955379759721,1.36834257565994,1.44400152928993,1.19103601329522,0.934777065331276,1.48462551626022,1.2350943123774,1.16785311615067,1.20263501148428,1.00046180390739,0.953989668110276,1.14154330025114,0.69502024950578,1.10424537119307,1.0072827945044,0.771247211972255,0.787252107932204,0.939813621405492,0.661180504280475,1.29858371125701,1.03558869507764,1.02495646649521,0.579752571418427,1.0971525485554,1.00211433052484,0.794895055432408,1.0866492649585,0.767694887121175,0.931935420154267,1.08314685506284,0.983197436886503,0.787157507528612,0.83171543117873,0.641114689229056,1.02337916120874,0.718514778183022,0.751706182875913,0.588515677046856,0.814555997812443,0.860382297954994,0.649949442695701,0.507833213756811,0.598187617790559,0.869639809831207,0.910105041526302,0.742184210137222,0.580895519201332,0.993077547876125,0.889939516225515,0.718912383273402,0.703906627370216,0.97073004617198,1.03379105612722,0.696022595025873,0.695233376808359,0.945806383238651,1.09824303971627,1.19424715212234,0.995549964197046,0.791134568480507,1.11670916714783,1.20504830184716,1.37994707563381,1.26057444131342,1.1030765817968,1.27193095843672,0.480020694583802,1.25644464923293,1.43046250058722,1.22780314576182,1.39672900196256,1.41740207398297,1.56521586690806,1.53096209993223,1.48275769857939,1.1039489346141,1.35392320114153,0.904780483361541,1.11487239897516,0.958618118515307,1.40306990046516,1.44372858143031,1.26209019818106,1.30718258628162,1.43643766709355,1.1923903116706,1.05869778745089,1.37863523462105,1.04000071990331,1.0133384321811,1.1608029372428,1.0300101071037,1.27530258559255,1.14255863601574,1.02077017107263,1.37223498508965,1.08090845140627,1.52919249129535,1.6572820280703,1.42679030412112,1.18080025563923,1.04291924724279,1.45123700430782,1.3573024544226,1.19849279440378,1.35475845140064,1.19107362093879,1.32309871333393,1.37772065310533,0.463883880751751,1.46932231314046,1.07781371568013,1.08569499388227,1.37893417087679,0.922801373380818,1.26166475740536,1.23272221761192,1.27375846492082,1.25708262963988,0.918902195904076,0.779839815515427,1.49384865542741,1.26717823952444,1.26394956271672,0.939375427161339,1.26041760433042,1.09604663679288,1.04690303526888,0.294475587750806,0.603888754036722,0.369972015741922,0.568644630742234,0.791386801487687,0.900502516006515,0.840079868705502,0.939201533481149,0.961811959636022,0.995223013141956,1.02025277506901,0.946746489198563,1.07801260604108,1.00701596935319,1.02977406831429,1.07991730292668,0.928076312762703,1.06131806679888,1.09437635987011,1.23261133855091,0.826647837526492,1.0133683905361,0.924430849922957,1.04058100992719,1.07785904000142,0.857728383074562,0.840370279101689,0.964403283035808,0.934569511707446,1.01528363538745,0.919363819907879,0.808720386039967,0.782257860635623,0.78259291383095,0.743882822692885,62.0032492934645,112.330413528301,112.671730574492,62.5109704712882,87.5455758212148,55.0445481916462,64.0059879885317,58.8623334973212,48.8921504090215,48.9534169420294,51.9764445660987,53.6464516325199,58.287988578527,70.4256063848019,69.0004645530805,76.1584995229978,80.6889284723035,59.7573153527834,68.6183353264228,48.01886992466,74.8339513452507,94.3331301872807,56.4382730379957,76.2701329907801,109.415841980373,67.7434318803556,56.5403270047275,67.7956837156357,101.693194409808,102.851887389222,60.6308059820267,77.9984801572285,84.3004999439864,93.0000161537973,61.2530790608298,67.5661212872552,58.2717855164591,97.1513148366498,70.8013484989838,87.3484363920486,103.004098489348,69.7122792480767,89.171309682705,92.6813881512205,64.7401928122498,79.5475407912343,74.5207369236996,59.6824841632515,67.3624465512809,57.0099029959255,95.7746538868513,64.7113565719208,54.3465632840672,64.9245714502584,71.5509981583102,59.4463417309709,66.0296319879503,54.2381914225593,47.839141468912,50.0150651556232,61.1079480154138,56.3352008520216,52.5746631682557,50.3267626334548,60.4975957285606,83.5124376686802,84.4359995095183,69.1436558487489,72.4631190866334,57.4975685761709,52.4647952431927,56.5559084770805,101.821433883591,78.8972914172256,85.4597486427379,83.1218500779683,75.6155294176174,78.6502340033177,76.8499715648787,70.9708570712577,68.9172471829331,89.8005687733927,69.9333140711593,90.6779863200083,78.2452869547255,57.7652463874642,68.1464684006437,61.1479901202475,58.7425856451443,52.336570011667,63.9899445744232,67.2967217278629,79.8056630355558,79.2311203664383,92.6247084831692,64.0463760676153,78.1540605343742,58.7765015272507,57.7977522429542,64.1717382217247,60.6118721232719,72.7180849290392,86.6663873620458,83.4881941474083,67.1115718591819,76.2618422434413,93.7769832325528,67.486850707914,71.6862009429204,72.3473460547897,71.0546369859929,82.3710151769545,46.4561433081941,65.1673624748951,50.2252039127933,49.9915865244132,58.2293786598227,80.352004346136,58.3599863163703,48.8363530557876,48.9485149919863,66.7077801985849,51.4627620025965,64.7479310886903,50.6513965266834,53.2850434966043,114.291395080499,67.4273460578772,56.6755109716966,70.0430422258923,51.4077961131949,58.3408586938947,52.3412734973231,43.9285459741788,73.2809574692093,69.309794772233,66.3104111176958,59.4853558582664,52.968533165067,63.5808252643612,55.960001867664,43.4003136509897,63.104565862988,46.0381575733995,85.5333522717638,139.648323714195,123.338841256221,104.877557226216,123.049963864397,140.938217845055,94.4708929964838,106.403197673474,59.9816908104441,59.8713548130813,62.6550825801184,63.5839388495144,63.4956114401745,59.9763266434122,64.9046060177236,60.4819128923353,72.8107519838985,68.9906482093909,66.0632522894377,61.3522261507298,83.5345960565006,52.0519908015035,66.5859100954088,54.0671831257758,59.5710797470422,63.3624116202349,59.7825871206453,54.6502336560636,48.7431518214593,49.0059899639619,60.7732562345606,62.8582136216337,56.6856173357196,53.8952235126406,52.3798633379283,48.1124533821519
422,0.640238916596997,0.762684677290123,0.763832370698096,0.663672106176613,0.774426562816685,0.956579645455155,0.827635683981804,0.821942949221766,0.872056816998802,0.655871399992691,0.75354725988077,0.672535063977224,0.55040157057329,0.434250441579502,0.934777600794674,1.26957200056648,1.33404487034249,1.02741313288951,1.01110271017556,0.907427549643869,0.648803792335529,0.55188041434681,0.671053615438776,0.6179976299986,0.493039537734489,0.825285691848006,0.631954147771736,0.684267792857766,0.817987539592367,0.844000463289775,0.711307727558757,0.742720684630599,0.738594133128325,0.60363888378752,0.92681875311517,1.02884199352387,0.876450605335033,0.578673233118198,0.828710209349824,0.657140641920975,0.582129468517224,0.867107802701807,0.603315957565052,0.989605266526496,0.749598311905837,1.05747111897117,0.886977862671061,0.867590173765059,0.592823553884126,0.891924929504959,1.01896058347404,0.995576880837751,0.479352664252247,0.537659912491245,0.534896758904967,0.430329066045501,0.656806180186479,0.368836419838909,0.375381593247219,0.432375854023952,0.501004321023488,0.520606784121662,0.482700057289436,0.437801231096132,0.532987529987588,0.611277519034936,0.66106663893127,0.464336440132662,0.467652011874798,0.486823542506632,0.596255368116023,0.670423741466154,0.613507758030818,0.48359621522456,0.545024776724089,0.535429607310121,0.45680630859976,0.963138422515363,0.615979642684194,0.826177259546594,0.718424155212749,0.795094527289004,0.591278343150599,1.13101892567961,0.984444762583538,0.719639789848582,0.701396513460716,1.05379517769975,0.764773711720359,0.865959459859201,0.648926647952723,0.936623452318042,1.17320952364017,1.19518086222688,0.927419309207637,1.25570922927626,1.09015871840542,0.909717470354714,0.897628276415387,1.09343588994423,1.0068480193409,0.995895114386636,0.500968044613713,0.618300526328322,0.788229859346282,0.726941736980561,0.688912367725772,0.490135230508544,0.739644278444352,0.719725637887689,0.549177914336619,0.606893418946958,0.698126834872688,0.470476753679258,0.545467048793172,0.615790509302082,0.698233608716165,0.497080365960329,0.362074041483949,0.64009339976404,0.697413704214827,0.534403034595508,0.497094285422444,0.569806014405451,0.580669472540655,0.824266196556604,1.18167086044866,1.08495923945936,0.654525620228732,0.969461440518266,0.977411365316449,1.15585799951739,1.15807475699071,1.33468196871336,1.36904716506582,0.364628130556192,0.985207038079596,1.08513711521937,1.05070764561133,1.21591224236869,1.29619411170997,1.27696562290727,1.36221967824019,1.40237158073554,1.32183760278846,1.47685393816562,1.35074477982186,1.48825444426663,1.35985811757004,1.57733717899347,1.41228031319314,1.53124968452969,1.5381078915566,1.52414033192221,1.56267302082766,1.64528005989745,1.27963330251642,1.52359288936106,1.76177823695843,1.54846160276648,1.38215976958373,1.46783261769867,1.20834068314601,1.40956685996468,1.29062430400474,1.44522316058395,1.50747370356619,1.36036410663105,1.39708190740389,1.48077643599266,1.48150234890532,1.52266057081137,1.52884131467943,1.42174914675765,1.50241976171389,1.49787762261654,1.56834288475468,1.50895427197091,1.63804821463966,1.50111685150736,47.436332201647,55.252659196249,53.5763024614995,57.5729854291037,55.1027927274097,78.6657193395531,52.0530665250667,64.2637718638196,48.4084079079656,51.8022863075846,94.0940278481643,65.8233647800295,60.1179788914498,72.4094488475663,98.1889078222348,77.5200532269152,62.9417813454719,74.5718308363958,74.3474448483182,54.1681302732275,46.590307941272,45.5723122417483,66.5282195787467,49.3508689831087,47.1333035309738,56.2632211799868,56.2739110291068,55.6140795424054,95.7943991938032,126.865511186807,63.0461207198463,49.7426593239629,97.7624262055154,70.7600941345794,65.1162637036904,68.2083705170804,75.4112317372126,72.8184706145106,78.4172709431593,51.978728566105,71.9677875820323,85.6974814890083,48.491151211434,53.9110975673551,50.6503647910805,73.0694351668259,55.7172052727082,59.3347623493734,49.216501131112,67.0281215081119,85.9437839850226,52.3708712843184,47.3194973948198,45.3605610322332,45.3377252059791,43.6019410688381,58.3207226472313,55.8235979120364,49.9270883647213,59.0155556679091,52.7325610809533,57.0234792574671,48.641552860488,64.182080638035,57.5693509279009,57.698571993516,68.4229095527306,47.2701067538619,54.9044353162214,61.2642095781455,48.0135445973879,57.3871921088976,57.0828503086889,48.0628993640257,55.2364218272831,49.8071341942712,57.0244154528331,53.3211846045904,55.7215821246914,150.074396349182,77.6620594970857,113.288636748877,118.440986054958,84.3635182559787,77.475763003692,95.4380904257877,113.812058466423,70.5317292469108,55.5357108718607,58.8322574327902,47.9773670391993,92.3747790332069,68.7603915267447,76.5697879476917,112.987330844558,74.0060610269155,64.409927579021,64.0378785149467,90.2303578458555,65.2657942449307,69.337675619243,60.0169100718258,46.0218950886415,63.15614674592,63.6107272204863,54.7075134093281,69.7478308185857,54.2232122993072,64.3835021446627,59.2531879306997,50.9879357311116,51.0522607261808,74.9219393964266,53.4763781160972,51.8736694271606,49.5936315070096,55.8900380845827,48.4272279766797,48.178267272488,62.1333242402579,48.112931370057,48.0965367457238,45.2698665561507,62.781981740337,61.8127155660441,89.8176288504478,64.1583615878451,61.3473875511227,103.078663103668,86.5687294327403,79.8862824706246,83.9483455742872,67.8138120529606,56.6982450473558,49.819006731358,119.379256495929,46.6063728895422,50.425016022965,42.9253310574268,49.0484638801323,41.4622534028061,41.3617505209392,40.1700035277859,40.9492782524946,41.7037056558472,45.715989668473,39.6171545999482,42.3173054775762,44.3364498775112,44.1251130808858,43.392622859914,41.8444241447887,46.3659050402058,49.7197288622904,46.5517057889778,48.5258249857117,42.2216716395971,42.2775550476677,45.2300738873943,48.2226766771861,48.1126045561464,45.7155753154649,50.0134438546377,45.7540979599817,55.2967523797524,49.963326200591,64.58728464788,59.7482567043014,58.1272675493892,55.653931936227,58.0620722487519,58.5633658813434,52.9972309737985,60.4288416589572,58.9375536314461,56.9957715201999,72.3819299595269,72.0618667023529,65.6463293216807,74.9956426281776
423,0.587693810080566,0.598115266157482,0.591096935737546,0.529894536546848,0.800912182180014,0.582981261376842,0.69514352753255,0.572358519927173,0.81080396611471,0.709502068976223,0.60218654711632,0.66519888441883,0.608360572098865,0.90865311532109,0.608171604566384,0.837322805569299,0.780235277024851,0.600615564954267,0.539458238651349,0.205728361439805,0.909701468004272,1.0503641393078,0.867668250026545,0.757325307004043,0.530258666137028,0.662151389038807,0.752392563542673,0.621855512583648,0.643080981923751,0.772052712994051,0.754230979750536,0.592885068708734,0.636669961767906,0.627489508650169,0.659247967329829,0.673285688655024,0.698227574050201,0.706947066460935,0.692812788314729,0.54479589102942,0.770028701995026,0.709646436274618,0.588737379526741,0.754779535511757,0.604269614203011,0.369230900348082,0.790015860067459,0.661419690478402,0.879415967998819,0.647753779935849,0.657216568734298,0.537581271033903,0.719255430320714,0.767715104702789,0.76268714202466,0.630096403819207,0.671400663707905,0.596199991090031,0.585561039079662,0.689808670416048,0.542924933068568,0.548453041077663,0.477120944775748,0.610354791561519,0.627324913729743,0.622966099162924,0.429214045644743,0.583238201334468,0.654345081799158,0.68323562758086,0.64506561346694,0.623747706234065,0.461370600969719,0.720885462157039,0.487082867296478,0.680541509340646,0.557065381108389,0.616480449014036,0.474988757304675,0.604556157149787,0.52648850263018,0.580679028114117,0.48077409482354,0.579845835959154,0.609732744913082,0.545712829251861,0.525611129464443,0.576199822480081,0.649796401086128,0.579780817934056,1.26378622872787,0.946151519005121,1.23267178200223,1.34499609399848,1.40954319280044,1.17286816915181,1.40634540252495,1.40809569525541,1.6061628003363,1.54022049845154,1.46146573389562,1.35418863738695,1.36589817758464,1.5922747476826,1.52596319795986,1.4597413453489,0.455063938997627,1.38237022266376,1.19661612052911,1.09789832745131,1.34470138234183,1.01459660969421,0.754901635943534,1.31135829536353,0.958204934722896,1.40613287237724,0.939996988967823,1.1046479256416,1.51583929981583,1.06103358990818,1.43300329203606,0.914044985860226,1.39184448048255,0.781908553038131,1.36569367227775,1.16450872176282,1.37184924119584,1.44344655881838,1.32124995199761,1.00818606772403,1.48038911374468,1.5796424579245,1.09269826114051,1.38314926378529,1.51494127380111,0.290688987256534,0.385354980886437,0.742678679958397,0.523322340654591,0.703402103019097,1.18371059622001,1.22908474199273,1.04367364544634,1.27477330203465,1.09198521976057,1.38253266245611,1.45018482892856,1.35277112692288,1.41334803995373,1.45314742914245,1.44252168075896,1.43236571152629,1.26156897143384,1.25285864854137,1.17475957627249,0.379879124165732,0.883629534050105,1.06353641557902,0.764483171561631,0.773719019680014,0.613971494830282,1.03055422550225,1.12913033708407,1.10639699614375,0.643690070306659,0.729191673292152,0.90428461339115,0.564046819270646,0.946916011064772,0.892617902127532,1.01952584044456,0.638776146436049,1.04367089989607,1.03831526470079,0.311388500360157,0.299126997154195,1.20016998189537,1.1514090818643,0.883752828569687,1.08805998106453,55.4243322417139,57.5437122405317,55.437422107242,54.4621011337955,64.7155215526538,68.0293945335698,62.0707030255456,65.2087723928151,73.5222828115828,59.9360061190408,55.707046088035,53.5954033494091,57.0808905302566,88.3940187891366,85.0719181999212,68.5869823357878,71.3740170852763,62.1390787533136,67.9217684490753,129.651253580576,91.6350112199993,94.1096294760943,129.361239078667,65.8200442355244,66.1298513372848,67.0011403571214,70.9651965222263,77.6205138285376,85.7509042237652,84.4783957704063,73.1035936738439,74.4886573682203,64.2224734142705,59.6489366920724,66.1191213627996,72.7959760197122,76.1912439502687,63.939044674305,56.9486088447424,62.1417054661335,68.7632391025789,71.5544939922028,94.5553822330073,72.3630663578685,63.4409029237955,143.812886906928,116.92103643326,55.2728301850968,101.18901468702,57.9721446477311,58.3719095056194,57.5754866759092,61.75837086881,59.7336449247124,64.4383697242999,59.4862283634927,57.5662635528908,56.4434505458607,65.3973354105034,60.4994546908069,59.6170506452678,55.774561280392,68.5771697940764,72.4333588601163,65.1405744158157,62.8073765558703,63.171946490003,65.1973072667047,57.768444747108,71.3117761715314,65.0704179701425,67.8031247789405,62.7442562666048,56.1991483455253,65.5847731257445,62.1759314513844,61.676794300386,64.1287773492865,55.7142822124834,62.6138850080254,59.4058925331312,53.6529984072166,48.7929598930179,62.7735248889757,61.2416055482817,57.7310073358037,54.0922758066372,92.161450847561,61.1644184025628,65.6721052682242,56.2298662568993,94.6033572846817,56.6258633734587,51.8517633297571,59.272773074994,69.6401316185647,52.8488715768852,68.9456754075603,59.0733568776248,50.9734766988315,76.094347387916,53.9452395525547,62.4989158746945,64.0910688305536,68.6350385458592,81.4753180407488,129.283910834205,55.9208259734416,63.8068668221342,70.6426378263779,61.6782194895225,68.6395686750916,93.8448712176591,72.2076749932726,99.2120802055836,59.4821960625518,63.8704731691109,84.3368622386055,61.596667195663,92.5170207536709,56.8308475060044,102.801010734341,64.9503315234526,103.215133618719,68.0690565988545,70.150669742732,64.0734531821066,75.6827419711106,85.8434692896249,87.8264402095998,53.691517072037,58.9037650349626,91.3789675804536,65.3929073031001,53.7376786566377,131.523835189802,133.404780290579,108.462119417871,122.179612474484,151.599846882768,67.7968837741408,62.6288101787055,96.8006901374048,75.9531714180057,106.853124099093,80.45879663562,63.4193572923112,65.521854562613,59.2429561315546,73.5574273088797,70.0051461265919,54.497459196071,68.7907713068814,66.6679481994092,76.8276541533296,105.194103181536,112.095980550776,91.3244437475086,121.916511490353,98.5345274105164,94.3876779649123,84.6027272373595,79.6714156953386,79.6617185558889,71.6602581402773,78.2632119257645,71.8965732999241,112.282311333834,92.4698606612823,95.6437507997337,96.5116337023821,92.0336023317582,74.8509588077347,78.3996080893802,87.0490647405084,125.638815576436,94.8929517005474,55.1060110565574,95.4240188374495,108.943765610394
424,1.00070038362464,1.00457217286182,0.942636971044056,0.719100272803602,0.259181394114828,0.833216575364753,0.795193033346469,0.781348009445581,1.00436264869962,0.973064600036606,1.27099243646901,1.18900438857905,1.07012919669777,1.10236155006703,0.987182298602218,1.16927311515503,1.1277087535917,1.10731426418174,0.641500151980297,0.687942471889172,0.115424687570671,0.497606995434133,0.109930353407784,0.032607417438293,0.19256058789206,0.049956203672316,0.100538202177339,0.170641168166419,0.069941846653272,0.449289546669074,0.520872498369451,0.6506701770422,0.783637827022784,0.611425640958844,1.05757068285895,1.02583398416475,0.675284120899911,0.479138182484924,0.635114055235954,0.784831128736757,0.799964040656909,0.628970314548846,0.822409799417975,1.00644236137945,1.15469719503331,1.12133033343647,0.918804203375221,1.32014000444594,0.80923615549122,1.06669257881989,0.582995094533305,0.59313024520129,0.14445578474298,0.598386084975401,0.129385228167933,0.030523281226691,0.274245124725704,0.041560008916648,0.087758375461964,0.14129376890404,0.049577589264487,0.204915666937864,0.56574704377829,1.23401668400002,0.663728204831441,0.81731989887046,0.980273727383149,0.856722582276176,0.482237301369478,0.676531983268652,0.781407270175188,0.64038060302489,0.719747693026305,0.837322956839935,1.36620952696421,0.930656906568607,0.721364015321247,1.03440382915436,0.951614492704563,0.955742915028305,0.880628097430854,0.85575866275122,0.768716404481507,0.634985781239786,0.112229571913422,0.452765800374364,0.097288027230996,0.038728279086849,0.278730330008886,0.039847348410832,0.073589636110702,0.121524613870623,0.06282106533444,0.375523342005064,0.440459012223726,1.27616104465245,1.3776154896334,0.671881972935773,0.924824010441224,1.05821276290533,0.440762449640739,1.00163916491719,1.02182318331439,0.882899218694253,1.08604407321734,0.841821645360089,0.905724580661008,1.07552659869361,0.917381457726505,1.03137753565101,1.22247550099674,1.02142245384569,1.0500179855138,0.741577069565327,0.488644398806951,0.495605774961978,0.202970440925466,0.522397552876282,0.227374647355603,0.057467798723396,0.396282330979919,0.042801934863582,0.059575182381571,0.317491367327557,0.089060692695313,0.484754391088527,1.32792162756099,1.47620546453692,1.41096918343976,1.32283084619384,1.44346824623135,1.32301770416802,1.4564896233872,1.48666902527008,1.64354785190194,1.5568809527951,0.220516349522856,0.177483664685694,0.696132639338991,0.876291431946625,0.757235479874354,0.745535224107803,0.790818335203126,0.796372828806736,1.08621815998487,0.800573004793054,0.845735907089817,1.4054717407775,0.715020748635142,1.13210186077617,0.36163835108364,0.189840450259349,1.09350386443017,0.229800612889406,0.2084048458379,0.790862804123282,0.395705506324931,0.805998429136552,0.416786667921292,0.82302704302493,0.883042197719238,1.11424996127473,1.08913300828166,1.05805508959492,1.01281102343673,1.18763916181599,1.1044959673555,1.32471788127808,1.59051705115014,1.3835081384461,1.26805424689078,1.26898646364352,1.02313338224374,0.810404954886747,0.664924657742051,1.13322925997449,1.14354221118138,1.03406824829462,1.09841634470746,0.767510879721367,94.4485934689823,91.8750854437932,105.333688673301,111.936893282146,129.659561210779,109.648260254358,110.215035102482,118.827741486427,122.374975429936,69.451290272808,86.0120645880994,97.5599614621656,80.6129594205076,82.733344025436,99.4568157941545,94.7084658131338,87.1810689104945,90.4646499593776,114.143601257056,131.329141487013,125.797521525353,124.964262448306,121.808355711478,122.64007372464,120.676650308333,123.398975910564,121.436491278893,120.772092053896,126.292289468791,123.01090332697,120.052349370892,102.754187886059,92.1803812505733,117.614553170417,90.1048144050539,122.416963264427,120.045219873385,123.7282711158,81.5411320732501,111.612423680153,127.654337430418,115.821488894106,111.065960435626,106.298913039072,92.4940434333281,88.2135442220814,120.231282234579,90.6667878001123,112.942582343281,96.9129829483349,117.259645980775,129.975830451376,126.895221853348,126.030245000379,122.104202364371,122.497880342299,120.730452501531,123.333270990878,121.488619931275,120.52598997715,125.646024360456,122.902541712822,100.872167782328,90.7028274206929,109.341475379073,88.2022211319554,106.506760626005,96.6159127944457,133.731050132037,93.6261534217829,110.316567173829,108.234512451007,116.371543851307,105.697296229351,89.0043728558794,103.771604863427,101.718438261327,92.236265650266,75.0634218439621,93.4261087886166,75.1336244528133,71.5774894576156,99.3386951300663,129.627443576377,127.786589870724,128.030585486721,121.715512813309,122.465804181936,120.648456066215,123.133642524434,121.424991788192,120.210525069818,124.228555343457,122.245599255839,122.800887336639,63.4666384766413,63.4108755193173,88.6409515922641,93.8386274734865,100.675312502092,127.118235465824,70.496406465841,80.0762497418277,70.7943166334709,122.57705863186,98.2695824672201,62.0836074564032,86.6795017694226,92.7198234368658,104.799092302545,92.5844157244106,90.5277676706366,80.2203597830947,107.852861582183,105.288499464722,129.249634698897,123.922664772902,126.179688524634,122.680768424131,123.248284495623,121.048765873213,123.062101193535,121.466180212589,120.571475031402,125.522582670444,123.83651255148,65.5199739813306,42.2019713019343,41.3477125443105,51.7666251607501,48.4316887973049,60.9324378869384,67.732914607477,60.8259678392943,51.439830701185,52.8427503751642,108.892559841324,125.125198222188,107.766172684512,98.5908694683826,107.442277222574,95.7663909252988,109.79566409138,134.719141197753,106.387904873586,79.7131162247563,108.404245611192,105.440371478235,126.614602732499,135.306569386834,123.316735027186,128.418507147678,124.094805528368,128.108259488494,122.380143524033,124.179202902006,134.340777341104,134.819175832649,104.580896126951,95.3301998940412,68.4134906965584,92.4020477713672,59.863677286899,90.4992405928388,84.9405372877828,67.1623539304381,79.5576904174024,69.1778982825307,80.0587812856156,50.8861116684312,69.5583430414373,79.2530221124498,78.8605657853672,100.993574832858,121.858786694904,102.78132327406,97.1926160785205,84.190904204789,77.8482067555,133.748828497069
425,0.862907559626215,0.982558903551463,1.108319703069,1.03128513395868,0.276237509520893,0.345178307647504,1.23264604744774,0.483370726876041,0.448046317439667,0.709002148831789,0.756214906783382,1.01002011835525,0.913761091997241,0.668237815333277,0.969441404162129,0.791502978702549,0.146054188381499,0.590907588264222,0.630443097647359,0.305826585852165,0.77813264060577,0.771039384854503,1.16340375734852,0.618317318440776,0.506643124390722,0.825063213769916,0.109204860870451,0.086554265371676,0.40291512624157,0.465618964548889,0.1971057900657,0.668283908390083,0.95080207762755,1.0352129909715,0.806317769317295,0.754437668252985,0.957470497857321,1.03299410886768,0.42390269822778,0.53399516132112,0.396613921485343,0.935435832485093,0.790692938277226,0.629801262400509,0.988901923673472,0.967729294160177,0.806036358405857,0.951506372037193,0.765505303819399,0.274765360703284,0.389428795926872,1.07672691669422,0.598305774069696,0.601297173690132,0.867739587723788,0.956400489632515,1.12254627627392,1.10839440760411,0.684441847606341,0.769034937438897,0.722739935844435,0.145784510011839,0.659364744046825,0.590563354267294,0.342791442395598,0.841819246607853,0.778092533908775,1.05057686460814,0.718543572946648,0.488514456598166,0.708904220584859,0.106589748396643,0.062485748243922,0.380999826485083,0.388957276190156,0.16917945609113,0.591809439198875,1.02867563135047,0.963789268975716,0.773210632065823,0.800076683485315,0.831162692134644,0.748367562666678,0.643691068484781,0.486426144261308,0.322382818659688,0.817137660873446,0.673386956047818,0.614858079639164,1.05682012178137,1.18366198977053,0.997850795030739,0.816293442214894,0.915390341159962,0.971765358326277,1.04276068455865,1.08658413709364,0.991482182350919,0.951573547434771,1.07886726641605,1.01697575977813,0.950337455074931,1.04335827456579,1.09839649237897,1.03801231044373,0.878442945997316,0.675075560609921,0.955279528104192,0.716687774775556,0.870012031221453,0.942571881787939,0.962789506841665,0.768326623939363,0.797141532980678,0.545870161161039,0.8480816618643,0.238651315067085,0.201208904935653,0.413533282757675,0.394284056089303,0.336046487414453,0.574832544923441,1.18502669023795,1.11644370571401,1.18274050421558,1.13883985101869,1.1574832157346,1.10139578314349,0.486598581274849,0.497949015650166,0.310988677237471,0.969971903431876,0.648981134997884,0.583980726529618,0.955844623780918,0.994985342042341,0.965460455923714,0.977962353292112,1.0490800706245,0.332657341864504,0.525229710849545,0.975174650072658,0.936158991372546,0.570962861902601,0.709746208582804,0.851664095882387,0.782000950202447,0.81091170472532,0.814616020993239,0.803907455880491,0.640443347050895,0.493350011078341,0.744917277895668,0.651974105300303,0.664977603534557,0.998232765832981,0.850534046075381,0.806291559767076,0.70911582582651,0.59813489321176,0.9643240522663,0.33730534806732,0.152448031580253,0.368367346564569,0.670479064251106,0.318096470277619,0.693931450388952,0.93901619733829,1.11480838616387,0.928870099595218,0.969197873505323,1.07584441678591,1.13249633177301,0.854474924687567,0.399602438918496,0.40716990212356,1.07259591599481,0.46664371203984,0.521274221556423,0.832271947438157,106.320778383926,112.407328835959,104.663202843535,75.6628917978696,123.28539096881,124.181276893014,94.116452187866,122.308824153167,130.21259769654,126.763173404525,90.5285559851378,77.964735573321,69.7108698009109,123.037019351694,127.786210082651,91.3412208946513,126.975025590476,130.085713333412,132.101919372671,121.709733757193,126.453845402434,121.723524093959,82.0559745420489,125.485699803023,132.745992011714,77.6487723852687,128.861730289058,125.985278157915,118.255844029204,132.045807579061,127.032499244612,131.03087215522,78.1929854725059,78.7469205149557,84.3292877304645,82.4909677410665,112.470648010047,102.295108016676,125.264049526125,125.056072981442,128.073045997851,72.3183942213924,127.06540682172,121.295131736398,91.0869950115268,99.5573888518724,120.86148111553,110.792675151501,68.2254850307506,123.774817575012,124.196007123063,98.1276948231464,123.550939633953,150.693804803493,84.222367193296,113.614097363116,74.7790634869943,83.9318722757336,121.007898813073,120.603609116227,115.638890693173,129.960384448332,128.037786418088,127.136512331287,118.437494747195,122.317180264535,138.94648629671,82.2547526818785,114.982912667056,144.828074718788,94.807359217322,127.206949748342,124.738317104756,119.098244606504,117.455908347995,124.76785432759,130.975117413975,77.2158680791506,90.1952907919134,95.2206440319295,93.9240747429147,126.4231661147,112.967172939172,129.790642628592,125.186000382441,122.882545099118,96.5397770317329,122.707954637756,123.151487758233,70.6278393271834,81.2661114372399,108.525824997708,79.3826654040078,43.4225954152848,138.853339367404,131.091115415833,74.0013457444162,128.270433155191,92.6625637081096,52.0762864923649,48.7367296983218,51.3172793076355,75.3893982348302,72.3093182751509,96.0030069513653,68.545512076836,122.140142377624,95.8942943716849,92.9592855027533,87.314659009787,103.431329375932,90.5927161080216,87.1112718756625,66.0130441467425,121.550074292173,70.5028136668444,121.116599232304,131.200196887202,123.885816235948,118.039803986574,143.431802967929,119.427302634948,55.12764954749,69.0974169795845,70.2897782532788,71.3648066703608,101.86929307645,122.719876295192,121.758894060225,125.574480287638,119.891391895265,95.7671474711081,122.35446090687,129.393079361227,58.0334146846675,70.2022585763005,124.404789323265,82.7042607328211,98.8612879474029,125.346066434321,134.356015305557,58.6714696940514,137.692488232415,119.491370722138,58.7210819175039,49.2124035386659,57.6511539345616,62.2020487408724,71.7385489554804,70.4205348296033,58.2272006796997,128.508617661169,101.374778061346,105.173776270839,108.566814022963,129.408065071066,96.0525605205499,57.8408838883683,79.7445887649373,121.238963577495,62.223625578744,142.622762369994,135.92542528341,126.960653086902,109.708045314608,128.898920622364,102.035445877242,50.2272951813055,76.6185008897086,63.5675132313829,76.2925726749156,112.554642625542,113.242018299799,138.759288645496,126.104741364033,121.739123135365,131.361937574364,127.474245468931,127.887089733859,102.320459540703
426,1.04270406860505,1.18074697402277,1.11532107111959,1.22574611485391,1.29687983337959,1.02123542241015,0.820684788491737,0.873750714424101,0.357290637666765,0.329279462059513,0.793422323834492,0.536177458023897,0.73373179172192,1.04924214434235,0.602495245316494,1.33703762614874,0.589716703300599,0.713601530191178,0.208743543947518,0.368518788179081,0.152860175698618,0.630760949519371,0.553588355251225,0.557681357286728,1.04252232628913,1.17315652188415,1.15555736424156,1.1342541943067,0.993092404665605,1.16097297642379,1.09503684728379,1.1722837956216,1.18529996772982,1.20785839122516,1.30033885255916,1.12207159610032,1.36242366979589,1.21380218665684,1.00721115116349,0.565273014369681,0.60395380666147,0.33173045659921,0.289625683598745,0.947887142466171,0.721109755123985,0.771268843588016,1.06567347895569,0.538419961138855,0.841186878437396,0.421560832631681,0.161860861175146,0.132935747056555,0.324933602054224,0.604556745495575,0.414597375607026,0.731107942799168,0.904339242616781,0.864013086470137,0.708898281544551,0.625125783981532,0.821175200919689,0.72982240392872,0.670828005359795,0.677256204825787,0.913333440728732,1.11477154936332,0.883686317413612,0.842768719811277,0.408313712324309,0.594900126888357,0.108560606882623,0.124132288181258,0.303448425770437,0.490860089883687,0.061580873134692,0.292883082453163,0.35856384838055,0.249153547250732,1.35892251671849,0.383303035990239,0.51424337478146,0.186905122728788,0.33802922182695,0.124910046030595,0.579375023439876,0.738316073052971,0.645598296557836,1.01579366952928,1.65451158705898,1.63941409258529,1.42124810727171,1.59869569551092,1.67703970423866,1.59257843301708,1.7674036288111,1.7045905250751,1.57731790768596,1.65896483717698,1.75102612976479,1.60886815243008,1.32116990961803,1.01973252587841,0.882378090905107,0.295652951214008,0.291839199001759,0.883571644492187,0.858819399455356,1.00222013793042,1.12833599120208,0.696622001337207,1.4553485334099,0.830007538227898,0.392140920483216,0.134444258401123,0.200918751845591,0.181875493296855,0.806296412711631,0.442364706174951,0.498893714479287,0.460776415006206,1.14650633007128,1.03427374182023,1.0994536854363,1.23587091508965,1.29276495476959,1.27981458552298,1.51169344225919,1.28747566686624,0.751672113424338,1.26272852083933,1.30865558890736,1.26971459942159,1.03642169915411,1.22958492780134,0.268581670973011,0.661141876305883,0.234920965886517,0.208515529199477,0.878899272450689,0.795102274373008,0.324212906633854,1.39627851203343,0.618191925251184,0.640184037258714,0.750436214078494,0.259566232841704,0.732760961474204,1.00308942246222,0.815082859108267,1.0235771027252,0.662788988278111,0.64086537613183,0.358684583940757,0.3376771084233,0.321109367580173,0.586649385920031,0.42355482110583,0.800536094479164,0.615463584565556,0.916248881239065,1.28314951626777,0.444253673729473,0.389699862538695,0.575130322019299,0.897509028728024,0.763966998057656,0.415983353195813,1.172829807845,0.626441285187662,0.40004529775751,0.889898454213853,0.866264053113973,0.771500339279769,1.28155002083605,1.34161806381,1.33104493857312,0.862070780819018,0.960310804953401,0.515359656826133,1.05193062029528,50.2279021204638,66.9221415029607,59.8779510336278,56.7770001607424,72.6433821335322,136.450363768455,137.290885306072,147.33702150244,122.016782348228,121.339645839032,116.600017204008,135.34727572554,127.795489062259,139.069850654575,129.863750236386,89.0950359620021,138.810259435101,141.430184523939,123.040952468255,121.592708338558,127.430463140426,126.312320918144,124.361278271765,134.69225019516,94.0953962775244,67.1741428678699,73.9778728777118,73.172619911368,75.519628272076,64.6612825116154,79.3602565669371,76.2612476983054,63.5869095222553,59.8051861029092,67.6436894983934,55.0179438255632,79.5968278673591,154.609201042441,120.673402516778,149.800274166344,123.684559641806,122.258256467391,123.608730247046,155.180722249455,127.526485270445,135.106513192209,94.8344091216245,124.072017872165,143.158310665203,114.213318314474,122.492341482054,123.170970146043,128.945689772448,127.891710543139,126.53040639081,103.841408580261,76.9295111964378,92.0508065208917,93.7106641552482,92.4194725007538,76.5164097578621,85.5009604837125,76.6738699353052,78.9762363806677,61.132395658839,59.743996021056,68.3764829199708,104.346310324842,88.3248560847443,133.961269792726,119.757769008619,125.379258790779,121.476419758578,125.242630986277,136.985390557161,136.107978263288,130.461755036694,140.73749873766,101.020813287888,134.061571685629,133.192747952417,126.427350177502,122.472255395271,126.673467833002,134.942250446091,129.52074928959,127.892957619733,95.7109434600836,61.6838850907669,67.9516151072849,57.2307789856696,70.1823578821589,46.627956824836,51.1748255309899,65.7287395479449,51.9167665680767,51.4165420008382,56.2559147933086,60.1728837301837,54.6976078183393,80.7759703744111,104.445763747536,98.3383399480497,127.529770273959,123.110196413818,140.542444001393,129.061554190785,128.049595254202,130.375184809016,140.239096647333,116.5682870455,135.883879433189,127.40896862115,122.515784156053,120.970510374897,133.393382252811,127.055788929505,115.381119216937,102.638385191146,107.041806488401,79.8119348441694,79.0119027205707,113.026021785447,91.7258921880518,70.8131137433307,82.1751562665062,74.1756619714306,70.386590344778,82.6557617670314,82.9909231372936,67.2573024758758,65.8563636066935,97.8347963993913,80.5955265581659,136.034567692724,126.551713406972,120.151677505146,129.009202758598,127.617330553127,131.915675458953,141.297101257648,70.7395430402184,119.135586809146,125.272804488462,95.0259895116791,126.787031941555,105.647849920228,93.4987184413297,81.3800800840046,135.786611785616,99.2005199955339,117.194715128268,132.342988536661,118.141954206281,123.832202489979,143.640671113803,117.425045900211,107.516182493503,126.107128742034,103.365437499088,89.6251730750753,126.143879470684,104.179354295676,125.148597088017,127.215490002126,131.017123632443,122.365564725608,130.755502538275,133.730144166409,127.360493017298,131.551313240303,125.214923331665,120.018377635249,77.6029041707057,52.9588665032405,57.8488216996181,126.29232422401,131.108775673921,134.83998493596,117.716383014468
427,0.520277568089213,0.44915010006125,0.349429859523243,0.523865623518503,0.836588449735821,0.764534202958625,0.776364081089843,1.01803560715485,0.623086133386458,0.388866281704183,0.395519386027221,0.330276376289407,0.085401488106245,0.127055255658929,0.128027842064415,0.14069533988271,0.388710411785996,0.156153883163482,0.593558587780722,0.79333482961349,0.737726494777104,0.64240946302871,0.707659378471703,0.680588980625575,0.254348466215773,0.155349841745004,0.664815896506777,0.487095303590854,0.333838797457518,0.522874409784042,0.795398440700977,0.852094082876796,0.709020331318319,0.80191877441749,0.649173647491168,0.321628811835882,0.609194950518785,0.217895196438814,0.086616360596651,0.224851888541769,0.104073959985288,0.145294394317814,0.406879251889955,0.105156234507888,0.71757173256702,0.668377805919911,0.864195432739137,0.646702740361182,0.622830954013895,0.681085343303964,0.242707961908474,0.269995230910221,0.646937483003571,0.539692113699137,0.393825730425951,0.516416887069029,0.907173462642783,0.637577329405135,0.83213946614525,0.948373990688383,0.586517844299044,0.36431258970455,0.515886847893287,0.267295100269256,0.10288931586894,0.696730017946613,0.289653936799775,0.600494464835975,1.11014100937753,0.347317873551884,1.29024054460918,1.27560319956595,1.0442705108854,1.21895813329541,1.47711303513792,1.34201012629335,1.13294842820232,1.08036733728707,1.51054781728006,1.35367749434374,1.20543166717491,1.36312249782989,1.65064934422243,1.45990986509229,1.41548899030657,1.26360120288077,1.29019768548131,1.35380298106259,1.67753728414388,0.775385829359331,0.393067525454529,1.20163070004663,0.489053080360545,0.688811985828967,1.21307147056556,0.703487200807088,1.30768869156113,1.44621473000217,1.54267950656845,1.57109536869446,1.6429676743669,1.64640805871206,0.583527558835186,0.743097896649261,1.46748243229215,1.31998278197364,1.21584015480655,1.69744676822957,1.75249335945422,1.5296710568185,1.47393949677216,1.49747400547425,1.40762121836304,1.14624192210945,1.45293657718365,0.883326690275497,0.39556681083897,0.428583442721517,0.273940648075485,0.281706753211127,1.04824093268966,0.468780254058578,1.37578033723495,1.50253656442212,1.42894699254536,1.23021299337833,1.37133630177032,1.28138946525524,0.357859165650285,0.377712613069686,1.27472767581194,0.960580232602259,0.690057754467698,1.03855030474981,1.37095006034561,1.5879957328511,1.47873361488214,1.7418754889399,0.759342252775577,0.403242955516032,1.12334832508225,0.592488331698066,0.12347585117261,0.35623176083845,0.108766149189429,0.14697479340107,0.489583105476301,0.153363600357843,0.859971816601942,1.33990433156299,1.32885364481921,0.959461880081086,0.823453888500633,0.917847960322761,0.299542797587187,0.462511478201745,0.658918444804632,0.512594334508227,0.422458854900535,0.447616825848244,0.54877384822027,0.606680155650471,0.586387374481339,0.616810409881465,0.524284273691148,0.349208654357887,0.49978434028311,0.320649741379874,0.129936692747826,0.300806995131078,0.097854413021865,0.10710128329145,0.406620089290122,0.237738906049271,0.382784531010228,0.49820393139156,0.644769283467768,0.568295276531224,0.46350668765196,0.515945017263948,128.470791561611,123.757624820871,132.995278578519,92.2409227345649,88.0414151227495,57.24800705754,59.3148106796043,68.7395419835393,153.843757580131,123.573868887015,122.127949097819,112.137708990606,125.186259696382,120.930925383156,120.617652767593,125.93463019616,121.229594248313,123.112507609204,126.11929488721,81.8988523013728,57.7443786434232,115.084220272202,136.25828764597,90.8714646754762,123.342263635712,123.437031176372,130.660400266328,119.962780069321,128.659892962278,102.650781745821,96.3845122648394,106.66327723197,68.0657767978475,69.6464888761578,137.866953406451,116.787605182007,122.113274571545,119.186444880051,126.14348986936,121.190477958947,120.528991636797,125.940898611714,121.652253867927,124.064288262026,127.669256116989,58.1762883742116,48.5154375260395,114.15901375472,131.270530279511,91.2798341635025,123.197769626552,122.740747627557,124.589240919661,120.859811502852,132.009673453704,115.217721959309,102.510773178653,69.9727878013219,81.4588864006863,85.3450860119146,141.42655422762,117.495452371102,122.924596883997,115.8365194199,125.472504247152,125.078057773051,124.772617686774,139.477530742056,131.661588698925,141.128967813473,74.5360167686841,39.8075373305017,40.0373767787018,161.56718473512,109.259286127324,63.1480234629358,143.810223794609,137.461973589709,63.2142090050503,136.951808203015,117.657493553381,54.1036757272138,45.0662123752067,45.7557207483324,48.6922790707657,46.7323719743253,45.7290950089106,65.7829028948743,116.020944165711,130.561685868285,139.178737207419,127.555955287738,130.36894272109,143.978504178146,129.661164838194,143.382546398753,98.0373416458844,43.2507279319484,43.2680658710842,80.7920119477472,67.3139717608837,56.4521072778598,126.816055342794,130.388257701161,73.6772249764699,143.778176557121,125.872620124056,57.1451838458953,47.9839077693542,42.9112593755012,40.7704560443082,46.6961957939625,79.5883441575238,99.5310396709875,140.962020224191,140.12680288103,138.902827111645,121.624849190593,122.89786808727,127.88237353546,123.041350012147,127.818311543791,122.056943337297,62.913465026995,63.3924564643906,135.661862198178,101.419521720932,69.7082250155108,123.87021389721,123.867893483585,93.6369751788807,136.443077580041,130.078297823376,102.8956339292,55.3551170460806,70.000765016619,59.5211649027591,69.0058746368042,107.126965484188,135.600828781119,129.373088689417,126.942123787269,128.218076596013,121.000018656587,121.573239416082,124.259932565809,121.278376553716,123.904778980839,123.299717263946,73.3959751412627,71.5317927879063,135.206584744445,133.879197832273,73.1281094450469,124.409780056619,136.460361972551,100.423116586299,118.732213260018,130.965638508411,104.799686729453,105.331393648037,75.0256655611767,135.388432087646,126.164874056556,108.418013528877,143.426895504687,122.790390443775,127.436770967979,134.941422346197,120.958400656414,119.779743399685,130.249192683815,124.132439918827,124.0867729688,132.936947028855,157.158029720004,111.750659412128,111.383047767671,128.930870036097,107.990940020245
428,0.943287922004746,0.195159459567328,0.599372452316901,0.546194074951429,0.14016589335987,0.605455901450026,0.584470550428361,0.689375246263294,1.00062426853859,1.19413459075668,1.17119079571667,0.879840534571915,1.1622510160943,1.20061457060994,1.23740609596289,1.049846950407,1.15427849776061,1.01766206106822,0.958570669071543,0.840988804760362,0.622946285486825,0.819715192772096,0.275466371816187,1.15971503624072,0.565943424985885,0.505880145847183,1.02133334859671,0.432433822898636,0.876835969573133,0.45277603906343,0.198161709267697,0.740406409086034,0.816874573087847,0.607130110638453,0.890831424467419,0.989580683975894,1.24401560545394,0.953320334345463,1.16032674246108,1.18484612636129,1.14486672072733,1.09801138021787,1.16151209137137,1.22030762409478,0.727881836493821,1.15364282192623,1.03455800559143,0.630347982015173,0.650246675983681,0.572644881440663,1.13148995297493,0.746063380303649,1.06498538593851,1.02027839101667,0.327474180832546,0.440284391074696,0.274139652798188,0.180382424766098,0.858702916810198,0.524586137976634,1.13477227008255,1.06307230899629,1.23234202184401,1.20603403573169,1.26480546990111,0.833701276627483,1.04862338280054,1.2674013633381,1.29715508121084,0.996152161080811,0.717052140306256,1.23808634766407,0.829085233869699,0.585031118736498,1.04036056405425,0.283345658656024,0.880430046086949,0.400880382252741,0.578036141471326,1.07633302627273,0.224164002676213,0.803661677852361,0.593543335243839,0.169967720624925,0.643642527349132,0.517331077582059,0.590519136755281,0.841910767852956,1.07322452926222,1.10294576635348,1.06875375406877,1.06516472325173,1.23826720066168,1.14150175878619,1.01034420505071,1.01900811577185,1.2951487074254,0.938149596749629,0.689354431167261,0.591264120566194,0.613836332488139,0.510051835426758,1.00885347310779,0.651978759045714,0.680381400213975,1.15026324266507,0.543612669786941,0.725078427577058,0.497405664049563,0.23806945297888,0.422393379545084,1.0274096241405,0.667556073858458,1.05273644208697,0.835379502931115,1.1578716996205,1.22370931081939,1.05896284705301,1.06137715321725,1.24483813485192,1.32593004390821,1.19713750772008,1.13911810743237,0.881357602366149,1.20050068821503,1.21189943240774,0.515259684318054,1.03091662116819,0.425653577468378,1.18673524380633,0.768065613633525,0.763530945701923,1.21836941319291,0.254727271070866,0.501077860758849,0.521638386496014,0.183040437354407,0.834219714323937,0.667696766366175,0.856285524579583,1.18801476774302,0.82273556728961,1.00000766290958,1.11315799967049,1.01161703875988,1.09157140059631,1.14093503784711,1.05908292350939,1.02535173885968,0.940331972619722,1.01400934411008,0.590056877062844,0.578907100830704,0.789520260123182,0.27354403598335,1.01003759222638,0.354288500191619,0.493683769409759,0.999030355594954,0.263319948112202,1.22505835272886,0.403268828629226,0.187458696271071,0.696024561916578,0.750116454961778,0.607831335041063,0.886933570776228,1.07011807756622,0.809936631789726,1.0863683765804,1.05991732521068,0.879234963399289,0.881457197463572,1.01617514980629,1.13489229770328,1.18763955128036,1.15257395975797,1.01184801265579,0.824077371577844,0.75975070679009,116.411004284357,122.09013920065,135.667328749634,122.209027740394,125.88759088452,115.2915297443,120.224027337506,116.94714849959,119.513174731649,83.6232329146808,79.6763482546369,185.8224402109,89.7112771379033,85.5955563901604,86.5518701990994,93.7152980546231,76.1540982167085,121.402153767614,115.733298218283,116.723594832821,157.661482484719,129.016621295252,125.158810320443,125.494387988532,123.23654598309,121.341948528944,96.9265928564643,125.991407615013,153.977781067899,123.85003617803,124.267842770445,113.583910774021,118.342063945762,125.053187338568,84.9921764202372,105.753230669344,78.8923082334135,114.501169398563,109.097046730312,74.896083634016,87.7095155361268,81.2348550250845,60.935981152848,94.3908485340296,95.756774017471,126.710325553687,105.00326917742,132.637564955018,127.604589540793,127.965083156151,121.037914983383,119.15474412106,119.477701104265,113.263501440526,125.544742550717,126.7612576311,121.78381193591,127.700566975543,116.490160115183,124.140746981244,91.7348907549899,117.441510117901,117.387060856783,83.2178912392494,95.8739639198609,98.1662348381418,88.5238189124067,73.3608522424218,114.19279205216,113.966265911622,95.3329484708931,95.4604622075377,113.976756151775,133.193110147935,128.838846742019,123.263043831875,129.925936417585,123.160295770045,119.296358880323,119.144641153275,122.301564827902,137.428120824092,122.228645695434,124.957203411024,114.675896601378,119.570119620254,136.271897571014,102.836497767194,140.166686558286,126.971841322137,114.600033386818,104.728277656715,116.399949325949,69.0706160813905,68.7932508402408,67.3768142427726,102.555526192901,91.1799177199367,123.022997274066,178.916616390987,128.548123983878,128.841988842274,104.196922418843,100.247494673634,119.099574650631,98.8135120494592,121.758309294073,129.692755220902,124.321702572551,122.056845659135,121.021575879683,119.021586398575,131.117741580788,78.1588458616777,120.1910627361,110.790464970049,95.4215970786684,74.9874604424204,86.5919212649335,70.2906251104865,94.1808287526608,78.6202808774195,93.8670046727455,85.4178170386074,111.270784735575,77.7405154899246,131.158080453828,128.411732681203,131.044968310863,146.613745799006,118.889693033706,132.75873775603,107.592038928184,124.341459681734,128.280331630494,121.832763934438,126.750293033198,115.702065470802,120.291909089439,125.554156785879,121.405687802036,114.927708903795,86.6613562259544,96.0854662628916,71.8589463644921,75.8692442249229,77.5670654815627,89.4352035170496,86.8336461774959,111.742336472656,93.8504288467101,114.237249619048,131.963155975677,126.067494256427,126.258481487518,109.443818774725,126.553296685494,121.078525501844,104.492664005236,123.230372389287,130.819634626827,122.723568000845,123.601681307944,114.995614671809,127.05590452452,127.099260254392,105.353389740772,99.6782064570984,81.2078517732381,92.3571807284501,70.9064477632471,53.8558557016422,53.7179517438153,52.6953484659373,53.3442223790155,68.5323701342493,73.4120041077853,113.087439773486,103.862525552462,132.752612443224
429,1.09624091767324,1.00955689259944,0.980611928793564,1.13903880195812,0.939853947036057,1.14183462968699,1.02490332758948,0.921806012712486,0.784352236333958,1.04105426433791,0.90898541395285,0.651650133855935,0.827720627614454,0.386111879115096,0.996675261461804,0.627300089889831,0.717681655802567,0.910208249384646,0.252031770221522,0.603933863369806,0.647675709346694,0.129548211236915,0.727353935961481,0.640683522358757,0.933044864126713,0.97990811832548,1.18603592277124,1.13084517251625,0.997055997628338,1.23283534156715,1.24327956881142,1.04108825525125,1.02772893686539,1.16011228482812,1.11470313269458,0.803568712330925,0.822078931644819,0.564725945051364,0.660238344579596,0.285067556888898,1.32535452133149,0.521310289668853,0.607142265137994,0.171083451668209,0.340333912456871,0.933073126894785,0.3524627471839,0.202205074912033,0.639030661536158,0.752533672974987,0.591382027493853,0.81457929444566,0.950790864149206,1.21811202329614,1.19593121142059,1.09905786801431,0.722697206786089,0.836850406317329,0.884143862612577,0.79445407837549,1.20233334685681,0.889499103242531,1.03641473434752,0.774110888695567,0.560966715238381,0.769975037310642,0.501737844537005,1.05124550837738,0.860022745105499,0.744199137119859,1.11769125026625,0.2747580546739,0.603818706552805,0.433663028912924,0.148052977766941,0.795158629303002,0.735628002400164,0.860851989176446,0.934615909615353,0.94876334358246,0.781535357048562,0.915620814844374,0.797393341966615,0.916962119094616,1.19169781803745,1.22358373628931,1.08301268406611,0.384691128668462,0.242984865983012,0.582008984656914,0.386506942356514,0.591125256865767,0.113883618473479,0.911938536531155,0.269452568019707,0.351262933974278,0.941181999454049,0.231766194652886,0.66825129125709,0.324090869251481,0.326979955719603,0.562832747227092,0.413503242724911,0.72181547685369,0.352062862737686,0.200039172320825,0.219228211693856,0.329514703423002,0.35157895939633,0.417420925492389,0.300363082928804,0.173973551049095,0.541508834946564,0.773604650090881,1.03641649795964,1.18934229990148,1.00439038195218,0.878272521921259,0.833487056340305,0.687863317296099,0.541390643151114,0.551867270922176,0.95993497425848,1.12044479321987,0.529738442645936,0.745705271528491,0.720875839191495,0.400663346945766,1.07914330982078,0.959587537627479,0.898524775414436,1.00742304824559,0.943314100542274,0.822935029212098,0.898217742870697,0.665185591423926,0.735571804821962,0.643327457113463,0.692159568568212,0.875988004696115,0.86761699621551,1.07048192005003,0.755219271913207,0.932563257535847,0.878192195862061,0.496741384834053,0.996095537967096,0.627293380073189,0.829096658317162,1.12775663193377,0.511920639164976,1.18177946212195,0.796882379162239,0.320258351682321,0.810905769028365,0.860231298409785,0.892428543616803,1.1114762366212,1.1372907669189,1.01162514993081,0.975979405237938,0.98436559787206,0.82589279551077,0.989034798127169,1.0392483447416,1.0266511400262,0.990822245930071,1.08692978985799,1.07711963102366,0.974835427017764,0.871599661878088,0.788047336245203,0.75860133337981,0.974447378799579,1.04190510443648,1.07757021966594,1.08066285158726,0.532014890409957,0.757067490635123,0.647707469313445,148.975171590325,93.5268070773286,113.533098010006,107.691980477483,125.290963370862,97.0191296178333,122.85055015249,135.379923874916,123.208590806712,104.325635630311,95.9966175636426,138.040982180787,124.521587797128,133.471912740697,115.878243388625,119.203518400628,123.173187641436,112.599518724239,125.586246493383,127.838177993173,123.620728352057,126.929555402969,117.592670229334,119.014932862429,119.042837248335,109.025935608121,120.194660353018,103.574171301246,83.3290921671928,83.5456811169302,105.583251853147,94.247563619372,93.6169335639607,70.4953573990583,105.87323225655,86.5366968310344,136.391959704395,138.996580493656,125.813700786686,126.242106883528,67.4109202579105,127.920024604791,123.106411811733,112.515909494656,126.755414552002,125.606272548221,121.679450938027,120.064798808482,148.20670676823,136.906569123083,125.992523172204,124.465703082294,125.555525501126,127.84484607798,123.26088981539,129.213992983855,122.806396111236,123.002515845229,122.85193671296,125.881401896457,125.064046379595,123.711672713061,129.912619354737,126.666264991624,122.865761374347,121.805462923461,126.545237982447,127.018558537578,123.041711942654,131.633924159645,132.7867415848,122.134599180708,124.634376739999,121.142894314651,119.35862561536,140.179086230674,131.267225458241,125.804738466912,132.684249866153,123.053049166186,123.057826247714,123.326135669267,123.003853814107,123.190899215825,123.357673612583,123.434531545567,138.019824615417,117.654515780498,129.926262124777,132.108310529028,128.8790011027,125.258877033775,119.475950543611,125.754782510917,127.510663635766,127.361426659062,124.43081456602,122.242942178949,121.648018152067,138.346411862484,122.405963872403,147.552433292704,126.302074422298,128.102436296421,130.609560476472,124.980146196607,123.573988186608,126.646945614874,122.836955133961,134.951046646588,167.341738564401,121.93707346386,126.711254297785,113.460240693299,128.614797364932,135.017372119309,132.287790089324,125.521512975082,123.162848002272,130.412540862471,130.866058810012,116.575176985185,135.736066361129,157.972748944205,124.073456067204,124.07249997659,122.456276603356,121.756814549777,159.113202655313,146.507262699362,130.984264519906,138.156813497361,129.266878502192,131.789179342593,131.018809339346,130.491398493717,130.749531776063,133.587378149563,133.70459351335,135.982373219581,129.171228625805,132.445143028296,131.01187928419,130.572539861232,124.008342559632,122.276790399342,148.98422448793,126.101954513611,136.225928281391,135.833102836647,129.504735471838,126.863421384884,123.115384677939,120.692995774946,146.365877841816,144.463599168823,136.548144807446,132.333591049898,133.378648176874,131.759537485971,131.157706401919,131.340021681115,133.108102384273,132.161564999564,131.524221334922,133.66699876793,133.126929978816,133.544507870871,140.811141797093,139.575753499165,125.14282120407,123.982057910403,133.531258359381,146.560002441996,126.828656801374,138.140150761274,144.853448849811,123.698500829754,125.038967803796,122.540340550807
430,1.13456901595381,1.14152063279857,0.95783105165259,1.13258377084524,0.901876091899004,0.910686306303445,0.803049390215655,0.554466793089358,0.855953672191263,0.902433950199523,0.776422890306248,1.0170406349743,0.934204529682708,0.699830495515173,0.80356465565949,0.471532558158471,0.407670528860852,1.12854454602388,0.751443558686152,0.756330548830128,0.845682193642999,1.0531761569587,0.804077108239569,1.04445724376291,0.934959004374856,0.817349312077046,1.09715793526838,1.17686953699947,0.993281740495564,0.94372472615607,0.734041244555206,1.01080608661784,0.753740043136821,0.810941601653217,0.477128181840831,0.860147859828086,0.671461280274964,0.722033351242114,1.23171030300014,0.392410046050276,1.40575272605346,1.16776114637827,0.32720313483775,1.3159351909379,1.25706731746288,0.502015272810018,1.76602403331399,0.145006816263407,0.899138716999112,1.56334104731544,1.42951916054115,1.44894212181604,0.442350080784789,0.530994575239526,0.603645266675083,1.10344120488705,1.25201827440609,1.06865214991109,1.23920943161414,0.823712751467953,0.685875743322017,1.10230187593076,1.37729634540033,0.979703832187323,1.20835410773124,1.44459823649888,0.968683259037879,0.41826631967198,0.485472951746308,0.430332348236823,1.15870771324257,0.836001962800583,1.46714645774899,1.19967697827003,1.61786809712354,1.74689979926346,1.65523065773592,0.365420194309154,0.239033278944272,1.46488070735844,1.39285769802237,1.29220346889237,1.58471828997162,1.70228158636029,1.48642742162128,0.934253750152753,0.859101668907595,0.550483058339458,1.50135624742594,0.593459176845377,0.999381596734356,1.47028785325962,0.560146256522732,1.42888161419737,1.08680139254997,0.372582554096211,1.12565945174632,0.961011118020449,1.01002882097623,1.61850196084897,1.57005007420509,1.61289366044013,1.42096034065253,1.55759193369167,1.43955529329186,1.36557492631421,1.49234429424728,1.48611990363703,1.48709298921202,0.353513019354706,1.27624755011511,1.30539256290888,1.23106763164874,1.17164562184907,0.815784220000987,1.0367967905829,1.43699617848307,1.5206393817564,1.7618521980978,0.869550236005215,0.958275844693634,0.686555376237836,0.639858668455973,0.520564173930183,0.220297284203484,0.534232376317583,1.24628704834453,0.999005085883906,1.35855054055485,1.19767287872063,1.19492706195797,1.15762502060174,1.25870106031117,1.59186570231115,1.63920477366366,1.12961723299864,1.28794858493246,1.20417969985921,0.875668674447529,1.32221094021566,0.357857996623215,1.74966064891925,0.644942382178952,0.795278982477763,1.60011090880752,0.528199022945814,1.48626482422579,0.805048804531976,0.426385368600252,1.3318770180131,1.27272143449203,1.01253629304915,1.61983282686042,1.55378141952632,1.57200889506353,1.59382424150868,1.63549662744142,1.44651581673232,1.55494490578671,1.63269780019339,1.73415306015923,0.997176261408088,0.869888651198269,0.733967111201078,0.846527923424771,0.739130460057014,1.16376236827954,0.965026965883132,1.26844271138862,1.1652226441195,1.19007211593871,1.35631573246648,0.984642422314971,0.857466866496197,1.18362139259534,0.672140062183787,1.16966705935436,0.954557525422829,0.524508035092863,1.13438554471505,67.4386782307997,68.4697903221656,90.1560965745846,61.924129827352,103.547557814406,114.343799269669,134.668199038285,135.714251316975,102.96152826705,66.4936734798219,115.624659328913,86.0877186782836,113.573491160348,137.506152426348,136.292689224452,125.529320873611,134.713373440893,113.449995887911,116.780379669385,106.184306660919,99.9798589316845,96.3151284535879,156.198511411358,156.345828816483,125.593283189049,127.716283308664,87.4500714741353,82.6250756829839,87.4403398804666,97.6548028524471,62.4878003580182,107.604404564206,169.131244837393,153.832398252929,159.008337868251,125.505674876487,108.646195272585,114.342728087062,69.7439950919845,139.102068134169,133.764963516573,142.681647196569,138.151215886617,124.839663365998,135.839591822705,111.529138740051,67.0018553259705,124.787589146942,90.7864218966749,53.125572466709,66.2695372030062,74.7867559057212,94.6996614306992,127.221386549198,160.337236583649,72.7273636882236,87.5873188880906,115.875882345231,91.9627854343711,140.707133677974,135.951029853069,85.0114561952976,58.7261152230822,132.706660199175,92.7514647681674,77.7710903035946,146.488655546921,129.39258894802,123.054481107006,132.591829327225,159.392577134366,109.221325962923,48.3942701870942,52.8092683092893,63.2983585691705,69.7147646634757,57.8373375902586,92.8994484780182,112.035082848403,68.6468226566375,69.5341638585995,94.8939762764079,45.5975870436805,62.261276023631,58.8114606290181,120.172381575034,132.878941675942,151.991899202362,98.9129178610045,137.012510839668,116.681210213576,81.3400069532001,124.846033062365,121.9570780984,148.713333789326,136.409622410866,129.619003007915,131.069331097342,141.020865004101,69.9261725907865,61.0377055898127,57.2917911725395,48.0456132074479,61.7362790409264,60.0328547915046,50.1656256719286,59.7752426999254,51.3366199379905,61.2455879875774,105.350689202211,84.2401936238576,53.5946575465814,127.766435553744,138.632660952273,136.882670296177,101.012390710227,115.189729087162,78.4294134668922,73.7716945576133,126.293447429831,135.157015062016,127.291240487735,141.735997344869,122.970082043475,129.380893166913,126.743186009229,71.45161033149,98.7949199623214,51.4046596779705,47.8729057747896,43.1774290318335,53.4008244228748,51.4776218964708,74.793670197352,45.846588063078,70.947290093956,57.9414346320813,52.0273488709953,108.984379944334,134.927264603226,141.1329638396,87.3237342866558,138.280698044658,131.850240234078,88.0487795795539,151.979702843063,104.630333578212,131.623025387974,133.663780672658,127.938856831523,144.500444924574,111.971281917056,62.8907091985438,109.958867920864,68.6364406441038,69.4298439838566,68.7489342761557,53.4380628215873,54.7389716793472,62.91370021471,58.5422009494727,108.63430532464,92.0455249128368,114.487884409623,86.6561453736002,130.275083006364,133.437426343164,54.442325447872,50.6257488633796,127.196964706386,60.154242448493,61.6487449315518,125.892859535906,115.700488318766,138.837023334552,137.503636314677,132.633944522404,107.829829220389,59.5020590273538,70.3423154993651
602,0.824092876925715,0.854460838555202,0.881575889660592,0.824848548864915,0.741242671061136,0.802502610899206,0.885849167037609,0.805540588368775,0.639204145433704,0.864705031637648,0.688062642940924,0.887930381126878,0.657839736433128,0.775671603023574,0.757122537334622,0.786984263594474,0.82197116347036,0.863575573568578,0.708953068683927,0.608749943873864,0.871126348184295,0.739283841839576,0.722731636115608,0.695883389215127,0.81825003933431,0.84066453690279,0.790795173682973,0.64504158822307,0.679336583540976,0.586463157777609,0.492714590727151,0.670209973085733,0.754925585813199,0.697379651136266,0.661093154269862,0.62259900577449,0.598722923502044,0.512680354512807,0.890748724099338,0.568119139725039,0.750231678606606,0.718281780871373,0.714219977517611,0.844518512612904,0.611254097651559,0.754301751714946,0.556251330443134,0.595368837341492,0.592644646417359,0.747244472948418,0.794227421371535,0.792304191476328,0.673847057806646,0.720851356626772,0.794801628117561,0.944360184462147,0.714029148058393,0.946304762530054,0.811966298472737,0.651093549680179,0.871317911958684,0.706883313007332,0.856672067440126,0.853213223038614,0.858308376818443,0.831891315173286,0.789192098530946,0.934014212421397,0.775546508696877,0.787041886769168,0.852772969196975,0.715600512744437,0.651584427753061,0.822914189590158,0.707551721874128,0.83105454671767,0.79613082790144,0.840107687343258,0.887945783755361,0.845633683636222,0.729730539671838,0.808116873680722,0.723849134600026,0.905591221310093,0.759501488230407,0.883112880740652,0.740655714069896,0.829318480693569,0.858630282003801,0.852104138796832,0.69696757590525,0.858814608711014,0.958156216996853,0.754714678668674,0.803578925444524,0.724525199646752,0.857835170886494,0.925889844311716,0.69641839399468,0.810029818570299,0.758446841852197,0.813117848557018,0.684644792845296,0.876792920787633,0.803162871540909,0.840743390325556,0.708115404544468,0.752593684843454,0.842019261111442,0.866631137559413,0.702283221443204,0.812256999499857,0.678247157212709,0.741383062888072,0.83118142221588,0.864341245401203,0.785939784048739,0.596394308340407,0.699673725197182,0.739367138725885,0.78470244759202,0.781862527532093,0.705770938991371,0.625509312667822,0.656837282378339,0.786371206299534,1.17978420330301,1.07656394975454,1.43507801192553,0.848153706804161,0.871549482565539,1.28590556837227,1.20421461305641,1.45479943398098,1.43532499661428,1.48529172754215,1.44864630352065,1.30025730392339,1.47188009541037,1.50966191695441,1.37134562914184,1.29646667585464,1.30232093634056,1.32051409174557,1.10367142058348,1.43188158825003,0.527466716039325,1.22734468760949,1.45460368761086,1.24174317203632,1.35295660388628,1.07542767568248,1.22080683030379,0.933556948462425,1.42607154213515,1.50029443442261,1.43568058334519,1.49297306633873,1.33162857668713,1.10188473468703,1.07480771314394,1.38015560642157,0.781559542862205,0.259434508887383,0.795848454223304,0.822908377211481,0.794976910037503,0.9629462046807,0.741304000819142,1.42657078721733,1.21874237628624,0.949050975986716,0.65335776498067,0.556839550727508,0.575465814997175,0.523677325472067,0.552404517098068,0.614050958951812,0.918511501537903,0.784501388934946,78.7231661670761,94.8748503187388,77.2633384777031,91.0895057860087,78.6755015732903,75.820959649453,69.4429844941048,75.9582322074749,63.4802555277205,74.9677395365708,81.8990422379668,76.2142948537807,79.9370243633518,65.4044258908335,81.4074276031578,81.9895271664655,84.6659879410409,81.2433541860457,78.150391552303,75.9697958376087,83.4119057387705,66.2138167321115,74.5728251891461,72.5523918893105,68.5448794978352,77.5012756918824,73.8838977397379,66.1834748647741,96.459618566555,74.8391033188431,79.9626647494697,61.0909350404641,75.0008291574095,78.615722261184,78.3263930976018,88.1672087540151,86.1381956114783,64.4264177292506,69.2480289912592,66.9836349855074,76.3109776205086,76.536385481296,74.1984141152528,82.9852752713602,63.2710049342416,71.748314022459,75.0173409187826,74.3766114005187,71.4996313338693,74.4510857025038,62.9593025941751,74.4889492485123,76.0857715714701,68.3386108904471,73.5080221255476,98.5924371415864,70.42647272971,76.438690176744,68.6997056130434,75.1044912572964,62.4619093337056,80.7616241492464,87.9602033144355,86.182278265099,90.4399316461475,86.6295306692606,78.249273250304,83.9607083753389,73.8434940812941,73.5119295104222,82.0059030022723,73.3565975727869,66.7648705347377,67.8767195153586,57.5461447623936,62.2622736874542,70.1399884533977,72.043041757418,79.5196571986761,88.572251747862,65.7764843239531,71.4667921231433,82.1526580244547,55.398565812787,90.9754374742197,86.149795008456,68.6162001165441,63.920267956169,73.9492164070525,70.1325395887615,66.6028369252881,73.7757803454549,139.203424461573,80.4633482793893,80.4160085639893,69.3139963947394,82.3582113459595,87.918395709292,98.144354616383,87.4985183744131,71.2311360861531,94.1105400871155,61.1100017169908,68.04833952228,76.1824244337933,69.4741845419037,74.0245088824839,74.7549108941163,76.4101106980935,85.5928659531266,77.2382406508872,73.1087929307177,61.8188634607219,66.5922373714063,73.3100274560485,71.3860038299618,72.8620904952277,92.7393584937716,74.0933197865027,74.0699935763081,72.1019301112765,69.9556834638206,84.4449504460637,69.3605790010165,64.5213754996481,41.5246024521055,43.9940587874986,43.0815255486353,49.1640046505623,90.3276247396293,94.0127356801582,90.6658326180137,76.8272159924584,50.5841896581643,47.6264350686864,47.8108479263187,52.7283034297634,55.0206814758602,51.968253042767,47.9307542457121,59.1329178372554,78.7773988461898,65.3842570637135,56.0283711994541,63.2680969195938,51.6281009207045,110.014841112637,63.2220993978578,56.816302349859,83.9884244214926,54.8006644279074,72.3925752325753,72.0868180164889,93.0403159832217,57.276362468258,66.0437608175002,68.0620327387765,56.4154570159948,63.2548038267961,67.6432828891877,59.8237691209759,57.0631319577244,99.5239318891689,124.445126717311,107.479351127659,103.200389561686,102.876911287903,85.3929081719341,103.629342187282,96.9302974137327,58.627075112439,108.146650424262,138.118154849643,134.721669603731,141.919634004495,149.092887796194,142.984552912446,148.363968006614,99.2654498165799,107.06086822334
605,1.06842835864978,1.23049590783666,1.09969818300872,0.943153147863789,1.09630316661402,0.732812177079785,0.910141817290276,1.11480875824489,1.09440606723018,0.903611102154728,0.891576538600272,0.889145197340939,0.958199689260249,0.93862514359152,0.973286887073475,0.98822586366683,0.861246116699416,1.1069770508526,0.935720694145292,0.909007038661328,1.01046862244635,0.997860693519158,0.632263438558949,0.827254490753242,0.961511298413728,0.992373415863465,0.861715186452461,0.838929023684636,0.981406749899668,0.861486139488184,0.979918855817785,0.695334708655371,0.776102113230455,0.729946973676942,0.858873334996148,0.900952094548071,0.816320351784326,0.696670663945251,0.892430821894461,0.64886031439666,0.901630733007155,0.796605801289601,0.69495872344068,0.733166866091419,0.695727012909787,0.848210340281373,0.998921696726523,0.81976468987689,0.803685935881145,0.872799335793859,1.00693064982339,1.02897653705616,1.05918694241958,0.893944694279023,0.733873603749403,0.656334242239171,0.771178522990228,0.784303553884075,0.826782060714313,0.892452204474564,0.826456784473229,0.729267500131955,0.785342748980114,0.963352323508405,0.709247102154077,0.967751942382292,0.744166516834249,0.894288392949901,0.617931603167097,0.756417433053318,0.853380614958773,0.615595041614288,0.834161583288486,0.963845395852106,1.2191950019802,0.73654430648689,0.616984438475247,0.926452789928542,0.442529724797,0.934277332495916,0.697799066606512,0.632526629866021,0.756719333480997,0.725283519048938,0.73494512186764,0.617562167432187,0.904750458002676,0.935494115121795,0.856221542044709,1.10651389880541,1.00202457323842,1.23677097763555,1.03986907002926,0.931776024440084,0.736576215562111,0.95100806969139,0.774631134010994,0.689715144889677,1.00635884774384,0.83570482005891,0.710008893923711,0.712663907506332,0.762156706084252,0.789526643475163,0.73259538425702,0.729688904285616,0.671728305528898,0.745705497254083,0.686023174884846,0.803729480425916,0.488695555633318,0.923089567179758,0.822825003868478,0.867349959486005,0.699255286125948,0.710981363702776,0.62743380124925,0.748949346734967,0.907210543509822,0.806617138980613,0.680063732215646,0.958413060685562,1.11472723006052,0.824687137428931,1.05606498050274,1.04730403776662,0.793609296467882,1.03914458415948,0.711409890707329,0.776786220069477,0.722441624886987,0.684656866758861,1.04004776440858,0.793739062783446,0.793826863416877,0.736820427172102,0.523407224912177,0.847852604080871,0.777117829132173,0.993045761596523,0.684922200125299,0.79722242408898,0.662708134185331,0.675624778203342,0.738703073214821,0.802410366886282,0.71456849508647,0.61532166426149,0.779324876800998,0.797831008096827,0.868540216208177,0.730325011039111,0.660101023404871,0.648625537287228,0.714048319414055,0.960349354388955,0.95702693924887,0.840421007580228,0.808598860860961,0.695808475519248,0.824063819739606,1.17989093766818,1.29609301688123,1.29537098738191,0.689775747911325,1.27740956859125,0.832663577862524,1.15337434468764,1.11597399368267,0.899414037729459,0.610269772459164,0.733103365018618,0.754713795434059,0.844634376079324,0.711630945261111,0.719084463432153,0.680840912775326,0.627330240233392,0.585898509734617,0.666268239218139,76.3418548772895,65.1564687900871,72.2470135142859,71.3659028493415,92.5837477400115,73.2735740023473,69.7929086300836,69.8766006039785,82.0714908270246,79.1108833060044,73.9676184256452,77.6055961052585,67.2679009998814,72.4429290504009,79.8613872703241,103.888340879759,72.1820813517616,67.1639796118044,81.9628372236901,66.3446742503435,87.944017160791,74.1701175361352,80.9660765978154,76.9074982302486,77.1095749311363,74.4278255340953,78.1322231163705,73.5131097607933,80.5097557036229,69.3958839673317,78.7740322586983,78.5194735455444,74.2333541276115,69.7655041599857,79.4602122195996,72.7693043867633,69.3016244457033,86.2607341345946,75.9512403492687,67.9140678481637,82.853312616855,74.4287063990568,74.9573979500911,78.9944197609886,74.5544785116446,80.7769426889565,70.5746345469174,75.5492332744864,75.4588327755064,72.629719042798,68.6807954703726,69.7607474534923,77.4906148712481,66.2332814729463,77.6648420544213,72.7141517313167,69.9018053638908,73.8904274274442,71.6986695608296,71.1039669358413,75.7793376966247,71.8881797641092,72.8015005998989,71.2553774737647,82.2896750867584,69.0745398421562,73.0349361466748,72.2456728463157,80.7666836996017,82.1980315812966,85.4632077057128,73.4423363712694,76.0419725000713,74.0069637555922,57.1568688620541,78.8401799828451,82.0857532570959,93.675144741757,80.6476231051862,84.0209370114017,78.1367821483692,120.407031746651,80.6042156306041,79.2585498186852,79.5098111877678,72.734154912438,73.0612950831563,78.6721511335915,74.1008781272662,88.3145066635945,77.0185239689025,77.9633598136373,64.0963468895453,89.7048116479725,71.4751125340095,69.3754214160327,73.3750791008394,67.1635321381101,71.0996430056769,81.9635626681312,77.8908063153181,82.6828431318195,72.6373177579343,81.9246168038701,69.9785277695828,79.1512887998832,71.1495990313591,80.4766571282467,83.2359461698306,76.926842808687,88.7664561270658,85.8226710212457,66.1741723828178,72.1347492963404,77.8346753791365,105.558680638441,102.429638246789,71.162341227325,73.0653357316998,89.7721876571167,76.9229190205536,72.7394744773273,83.6308156754422,73.9693082018763,54.6648236258528,62.7285859592309,82.242126047664,84.2711708458229,75.3953448631234,88.5782716726442,83.8492228057525,85.7151644816524,84.9830533421283,72.5503587354224,94.6914094551339,82.6815224537175,78.740314133778,76.794616340064,83.8833929840043,102.379098730417,100.494517653201,74.1387495416566,85.7761016585832,71.3754334727995,80.4694168311877,81.4671079334265,72.5759496286701,76.5809736076146,65.9162121025389,76.2992499666842,82.1758371907823,81.2088395243412,85.6397770261879,73.2624773788387,74.4357174822562,74.7911995635569,75.8253964510194,86.8045719615154,81.8242098684635,87.1324461365069,85.3549461725577,73.6916948693953,68.0322206649378,69.770673122078,60.4786844457977,51.0204088231897,39.3373981135297,44.7624144032318,60.0581009684552,49.9925209310047,45.1620132186476,47.3193532742295,49.3195560253038,55.3297058141022,61.2713243226534,63.104313506974,67.808509833736,57.7213573377456,54.2910105468535,64.2574702307023
607,0.362173921888944,0.339848943022013,0.356121412857668,0.335108699596277,0.343061879282391,0.288146830775163,0.391214745720003,0.379995298635908,0.384965448303333,0.341741233723427,0.369725676114692,0.418334919052488,0.50730467391697,0.531420255569331,0.375251475620622,0.402846476819595,0.369610367848488,0.371181139989883,0.29879359183844,0.299836045722466,0.359473800546345,0.460611043909261,0.395780332049395,0.418610216767994,0.335275383156784,0.353564882427233,0.389838684795022,0.344246897290089,0.313292883163375,0.32871374255472,0.39054198827699,0.615739153698849,0.468346262586786,0.725806730134614,0.266171314278695,0.339930237654184,0.346987887778259,0.417180989461065,0.375066084271422,0.412980574534185,0.406374949439041,0.474578008789457,0.367463790843971,0.337238104786495,0.333130915683527,0.340937460290974,0.367851093787571,0.353894350412373,0.357256910063442,0.324161690170752,0.295839347036956,0.340028741836688,0.375682705149934,0.338457221321881,0.802696064720318,0.51807715624205,0.369065499165328,0.356576494517043,0.31049492864183,0.401502994359156,0.316945737247832,0.361595870286027,0.34159129694286,0.339396916272244,0.314802536535907,0.394951186287106,0.301583926687526,0.434709618401154,0.318178978033064,0.382832812516651,0.388846300088492,0.540800675708561,0.427763833172847,0.383544229232893,0.668201527871112,0.434744579232948,0.407522275741176,0.310913996493763,0.378273817635096,0.354336518555073,0.342194834100762,0.310904468536961,0.304436547248755,0.445877831472848,0.531281148863334,0.55285764172647,0.520569796946464,0.376064137671816,0.373335738733297,0.592250756047245,0.407418010236992,0.443976912613454,0.401474584396952,0.459000999227215,0.373936467267996,0.525775045616266,0.611046504764274,0.419120880372852,0.363397571405607,0.358742724188986,0.360812110817913,0.324835985692298,0.344374294560601,0.355905263981419,0.40770009354659,0.48495935623408,0.366335859185099,0.483990727305233,0.389844700881248,0.733775300597927,0.443712989094632,0.529652001946164,0.459000907987984,0.347964575950037,0.438563384014037,0.737235390384251,0.874787895178234,0.599863239416293,0.73254296967252,0.379167780010374,0.300116589126336,0.367296098373842,0.321272142837352,0.287201350794496,0.306893665158639,0.433626618051466,0.409297771455389,0.48865141124786,0.521481191040303,0.880214213847344,0.730756138947008,0.434758956294746,0.422305495168892,0.751399480611698,0.965917755758338,0.824041531001928,0.443575507945626,0.40503518094248,0.621377155636276,0.556637699950513,0.740408248838523,0.284817710019199,0.353446560598266,0.364750166005747,0.405058467982196,0.309690725250583,0.310159308207963,0.377911666022598,0.318327767012778,0.371055109571051,0.417468987590418,0.343630658044541,0.295833197532357,0.430919216353857,0.404703439606925,0.365693189353362,0.599111076118055,0.596386129038549,1.05855010518711,1.21051318124589,1.34887992526963,1.12025252230477,1.47862418035696,1.14032008195156,1.08852376550056,0.9185285740517,1.1580282984104,0.987317943192189,1.15496522521924,0.849304903523544,0.406407599931129,0.043462727054013,1.36784811689094,1.02190068993233,1.64892950442155,1.06500327063588,1.4840002807137,1.2485971356886,1.59370464855257,0.519495072181249,60.527684444289,58.7129457329335,65.9003900705247,55.3767007809764,57.871957443441,54.1620913479244,65.9829456739061,66.2646493969815,63.5906617824941,57.5677786744109,61.5033790012729,57.9571684613236,54.4158533583007,68.218637064218,53.0171385953926,58.083924665956,80.4177880344771,55.29765286483,57.7548519076647,54.6832665604636,62.3555320904909,67.2134972830047,65.5796568096205,65.1645924491059,64.1684833613386,56.7247073780715,58.0161416004069,55.2899688473485,57.4477218019439,56.0164135590295,77.6072760944953,61.2702305442918,82.9450673073058,74.4220068807091,55.184588372965,56.3661186407906,57.4908393151324,64.4453787532254,62.7252063396815,68.9245048919055,63.6726326121633,68.4688880881322,62.9047682371394,55.7874466957831,61.4006642423355,59.7917899956094,56.173349183805,57.3915278893898,65.2211465073947,70.0793229346,60.0270551607621,62.9906297536634,56.8529573657695,58.9932862432244,64.722724634987,80.5994580997186,77.272089516365,60.5434058171619,59.1948824838951,62.6117796735008,62.3269158928805,58.6162535927511,61.0751606795874,65.3934272746261,58.9914946764778,53.3241079784578,57.4188025324125,61.9217791937913,64.3175221617778,61.708527527591,62.5252112592398,78.2657427827178,61.9476959119579,61.5023859757884,62.6905388334523,65.8644181144697,63.7928170886253,58.9509104487446,65.4035202052585,66.8992490888205,68.4382178944241,59.8911488872293,70.7127184577112,75.6983770698991,77.5134664401604,66.5653165192905,64.9249257244979,58.51063310612,60.8327344401287,57.0455075768574,63.8538598133941,60.1581281880188,68.6862649039328,61.085630341654,77.1017950690101,67.6043630670344,78.0806857153531,90.3742018184515,68.8998217942674,65.8029241815923,71.4082086266193,61.650077980928,59.5051594676166,58.3484624529321,77.7238573966395,71.5798392120558,62.9804506270288,74.7104724851119,64.8428691902386,62.2818493811366,58.83520572148,71.8289978444601,72.7808902152015,61.8577737134347,68.1103163286644,65.3277042485203,61.2904532760283,57.0639002474652,56.4537687939899,65.7428840261869,61.7443512304289,66.449375975294,78.9728298485764,69.3034885007194,65.0826058864213,62.0811254312237,58.4965482005975,63.1109069057641,58.524716655452,63.288677169658,63.0499658593195,67.5926221400542,56.0019474095235,70.6989285671511,71.3091447667224,53.641751524142,72.4370016951418,60.2887171571795,68.4743407192451,59.7076867825965,75.125255013753,60.9448399400646,73.7529701087319,59.1811138826703,67.7059272714861,57.3357340108983,60.853263002343,66.2683341969011,67.4501954318581,63.2981890487465,70.1979852429495,61.6766965939695,60.0387111202284,82.5838870717752,68.5406624689618,63.5618530389941,59.539128145462,60.2760361458244,52.660868638325,45.5482061980588,39.2740210838414,39.8528548576676,53.3475566716148,41.0464188319046,41.4489015181615,40.7479094481296,41.6949994853671,40.6637783196763,43.0058977594996,42.0291895669008,41.5016986826823,90.6123438894847,91.7334071953103,116.574588408009,65.1969072638366,81.1924578871494,68.4771530824343,71.3760599061554,46.7375256109575,92.1888708416959
609,0.589724645345023,0.516561657460345,0.56456125699393,0.55542802389204,0.618463547547972,0.572322264418137,0.573276114658608,0.531723184833935,0.523957281318541,0.53909071599547,0.59111533699248,0.516890065276229,0.588911244193147,0.569811078818999,0.52898654247964,0.58047357922992,0.594212367480049,0.586054772809252,0.600693481257705,0.543359856564748,0.628706011726121,0.509173519835821,0.562240387145117,0.57879609432615,0.554471080120516,0.510825623765991,0.587404661357119,0.570773688853697,0.55038250366114,0.575645121024438,0.58112518927502,0.526070654496884,0.525441674999911,0.588048428386053,0.515630788310147,0.48239448823583,0.564031777559379,0.546490628719586,0.531418517408133,0.603829869776482,0.52690330352454,0.532369527864979,0.567684031799557,0.524524468124153,0.551221134430375,0.542154967393013,0.456074168680546,0.466420827305878,0.468677930964228,0.558832659782192,0.568894183567174,0.54897530996405,0.483200741143702,0.456013639742849,0.531012890655501,0.584456433769708,0.555602656001693,0.577333519449742,0.56531688820434,0.549719899810409,0.569134803253211,0.523777483757335,0.539416192087871,0.456726541940672,0.548996902556713,0.486888612025751,0.635697947629077,0.572686982966864,0.562501554871893,0.528823452953405,0.625588265689519,0.5693491923498,0.561114829996314,0.55273949348481,0.592551684366492,0.561521005598448,0.570671237523305,0.614053822808693,0.576846591959281,0.47145175787707,0.5388925536122,0.510909830746799,0.567492145078629,0.535424676258232,0.565618719292748,0.548949233261433,0.567796543464582,0.496116381774975,0.500110660547982,0.503446290788505,0.536483598501319,0.545195400257797,0.52516806719898,0.503342331845848,0.585353985755106,0.53339977621457,0.57211339985425,0.619797593335545,0.516162527694178,0.711118065881182,0.576814013919424,0.662902450506558,1.04680644066918,0.963438700305004,0.407970047760856,0.388738509993623,0.522566140944021,0.564910512412573,0.525600336973023,0.513559619651857,0.474461693505195,0.388652507275528,0.345178358720336,0.498704682188093,0.467073622912107,0.609806217926999,0.720119457648194,0.441936089327678,0.369278564461939,0.468492157349997,0.402120974188009,0.556526919731549,0.473300187434599,0.555541520425852,0.590019000335896,0.819382983558061,0.538596471062231,0.850220210016089,0.690750694257893,0.471791256369935,0.398426445206555,0.328534096783592,0.368940443041794,0.576884943105688,0.407896295476195,0.566641192934025,0.656496746952199,0.616839196439684,0.656181074728968,0.750292912950546,0.65591247753879,0.538303692942129,0.540028236712141,0.678566376485575,0.629725730349349,0.561623471929758,0.619833060005899,0.598580996652596,0.590502218198435,0.5821918422251,0.50625216739962,0.53692804377649,0.532491917837996,0.553650732993663,0.697045388812622,0.724355358750712,0.694287286015561,0.603207481048092,0.638140721820795,0.541539566304,0.603540983317578,0.543208888085563,0.551747675199891,0.544916352647149,0.517047459595528,0.546965988715043,0.600113280216083,0.534359260165078,0.493671076769213,0.539893846019861,0.367837557960549,0.55309898829036,0.487439277147074,0.523917794860559,0.527593358724122,0.55103612967257,0.55063897643131,0.576998744378473,0.658803802817353,0.614137629156543,53.7395454131796,52.3672380826779,51.9736492299817,59.758605361019,50.4377780583222,52.6450887142709,51.1186171558351,56.8714546035414,51.9115815892808,58.906670016341,55.7050012105765,52.5295463319043,52.4099867921507,53.7429881234963,55.0097786668649,49.1308837247238,52.1901856239095,58.267559739304,52.7235974412199,52.8524717381705,54.0127637585407,56.5339357241616,54.5539541294284,57.0942490176738,52.1812134618615,54.8675181781349,50.1334427917673,56.7311172082875,60.6616805746591,52.3543048561613,55.1642298583417,51.8011294338972,63.050170160256,52.6465337313077,55.5882880300099,66.8825280544564,51.2449199495019,54.8573201097114,48.9922704803573,50.9063230646573,59.7198386099753,52.4545254462706,52.6516115002228,53.4068658197555,51.04180109267,55.3235955559571,55.1518698642889,56.3491559102989,51.4627438829503,59.0041125840058,50.7877412563871,50.9674737610938,52.2178087803865,51.590625103442,51.5548986549269,50.9960496836274,52.5119694977195,52.9098751335035,59.5324045467517,50.2898403397713,53.4606810536058,54.299237511574,50.9606394480052,60.7070520484206,61.6760974930505,52.5106912217782,59.3276120511626,50.7359012323366,51.6682536619133,50.5060578474251,51.0813941849965,50.4021999964745,61.5943536498881,55.524165317704,51.9211241555032,51.0522161573447,55.6281345722934,52.7644381920765,53.110041678264,53.2769641285612,50.9968602703183,57.811354895248,52.0305433791533,51.3879533387606,53.7551269903592,53.898055758222,56.0842821571963,58.4115197108171,54.494397732211,51.4298055327417,56.4121844733179,52.9325355321717,51.3951523886347,55.6210435282648,49.9261875568226,55.26162969192,51.155484908335,59.0530374645333,54.621703310357,58.8505512444034,56.3125794700019,52.9618331355906,43.6970338210023,44.8961369856206,61.5784070840848,79.5089674430884,54.4112343513914,54.185998459604,53.0616120309403,61.2419310898688,57.3861484883633,57.6669691951251,73.9643265871861,67.8383030366747,66.5581243440307,55.6659453047698,58.4341065599329,50.4833411484185,68.4416019971073,60.4554684063722,76.4774431876623,51.9596159657535,72.3991511766665,69.0645937152728,81.291272690641,56.0423088604635,55.8392458898175,51.836794101745,62.0593285412936,64.3926474176441,58.1833055584697,72.203747258594,64.4210630147965,58.1487186270638,74.1275208847769,59.066433563701,59.303542740526,62.0577192796939,64.1163557374827,66.5961775965457,58.6122346402947,54.8264659466647,59.1460270766115,62.521929332904,64.9964664619974,53.0114542181946,52.1015236860528,51.6644406275582,60.8871861049668,54.4423989070595,53.4687842743261,58.880059308073,55.1248616173267,59.5254016102045,54.7669944371194,56.2110903576057,61.0979581716418,66.4530142758697,67.0119737685783,65.4708033814841,64.6423190306691,62.4155133631652,68.4500301276549,55.0739844307203,53.9114893803962,60.2476751893366,51.4706327073697,53.2360938692248,56.613949564982,56.0451124698676,60.5884972592214,60.7446132477361,62.720413303922,69.2009408371339,55.3971212516042,55.8035212288469,57.7208027514745,54.2631535629654,54.1903449002936,56.6859556125784
610,0.461001029169072,0.486953118861938,0.699172391371487,0.360506468432699,0.393662444572502,0.381091420557998,0.268553465094057,0.302119542272004,0.276523479973839,0.324815432495495,0.468757845737666,0.397739737811547,0.6052979801287,0.530974544889281,0.374958326766675,0.303263303892485,0.249174096177771,0.795937936754293,0.491639681532805,0.515862847814824,0.418108832828505,0.344787157224709,0.332674298052551,0.274479572319828,0.354446762605857,0.368064440930954,0.351094613651412,0.548538683085768,0.504175112286872,0.475464912737622,0.346498341707571,0.304886848937749,0.274306019669778,0.370262446798308,0.331884362938518,0.343669631924961,0.466413079623586,0.350756126025896,0.29633763941302,0.317784443048709,0.410170062409137,0.330414671404618,0.323758684267905,0.474621006586528,0.263793500010397,0.525555767334503,0.478146471090738,0.422912208693321,0.395620905897352,0.345562094643667,0.32438245935151,0.424497498876251,0.378735382178659,0.619990488937097,0.348308927420478,0.548906727436715,0.545367174161135,0.456609105789563,0.682142416954308,0.351053504155489,0.413048437567994,0.415006113367371,0.508802871298046,0.395501088180267,0.460591513685722,0.549573684827116,0.545911300456141,0.381400755832388,0.335937327192299,0.450934122930545,0.400557439727718,0.462146879672685,0.49895766461827,0.489627704773994,0.450918814382773,0.512203390280327,0.513363905620591,0.464436421134097,0.433561905702611,0.385773047223579,0.424544081120306,0.659713530427853,0.508306209061928,0.443831760844498,0.577944635592815,0.755767432651497,0.803105574584362,0.921913868277454,0.946826700708312,1.00111225615017,0.810227748306862,0.972632753122578,1.0252815918503,0.947597908270418,1.02435605616589,1.02724407813507,1.01043203595524,1.01840867312276,0.970790698443515,0.843598075940134,0.808821596800464,0.937146074795108,1.06929906583934,0.932317671716605,0.942377661043832,0.867066885009093,0.879835865923488,0.900391468026337,0.852053583758889,0.820207448215225,0.91254892801328,1.00052531625104,1.06856983467974,0.9407208642835,0.839501476202945,0.924121942160133,1.01690022289912,0.827888340610992,0.824785281716785,0.817402214666375,0.409122640332623,0.437257417642264,0.497336646187032,0.387276267972755,0.451573121795095,0.415842728527725,0.385552596643741,0.381628188210682,0.398462848325424,0.555339870203179,0.359948688097119,0.677558102596821,0.445962171410554,0.421790271652827,0.459883771905118,0.463657541273001,0.376347281754016,0.320761390432293,0.35053215645267,0.440068783530568,0.39093120371932,0.523813930100248,0.484731099580164,0.567287058432074,0.43736655313626,0.41981591474975,0.43817048571697,0.420612126441501,0.433369018173074,0.492701939919164,0.462072702576758,0.461152705265098,0.431807318167416,0.561337191375088,0.451538672297353,0.49062193002219,0.433888524239212,0.580560131384305,0.485478958010263,0.495387939773633,0.458358975674009,0.467256882570572,0.368485586888516,0.415644621231813,0.415885305708358,0.386934177203503,0.46538629894434,0.550225161392691,0.593681524433064,0.475866028299765,0.507010741115099,0.444452749785024,0.361211897288703,0.41277826196078,0.342986451708427,0.419958698446303,0.431659941486538,0.574519890735641,0.444048203605609,0.649185356204963,62.7395294399914,73.2996910392492,61.6373426257081,55.4448987231677,55.9997965119809,58.7850221240612,68.6825041147476,67.9594916386273,57.1414538129369,71.6654037259583,61.2091705344168,63.4035070052521,62.0059835186476,69.3697570916677,66.4214384707087,72.9007624205185,79.0502171534524,58.6973402188519,59.868035328826,73.7649250738831,60.9349649160161,64.7280766852112,72.9061974818754,66.9003077295396,67.2175441065122,58.8730496942341,56.4183825094097,57.5886403381496,51.0847807637605,56.3494421612271,67.6016976886742,64.3553141317503,73.8418938571116,71.3377285475004,58.8405723759006,55.9252821604631,66.0375323515317,95.9878534385158,77.3481390721381,64.740050794781,59.5358741220866,61.8216066006907,68.1212094188292,63.5997249646216,61.9121503812906,78.4324992290435,55.7350117696843,55.5856518504,76.1477994849953,62.3421791974647,64.9247199622823,58.8842174783549,55.6213810350347,64.6972387435782,66.9824333759031,54.8908535199039,54.9267400644196,65.0948685248716,72.5047079415058,58.428938678829,67.067027245809,69.7519195221895,61.0406350061394,61.9794285260218,64.6222268734039,60.5326668389479,67.4534031003605,56.3503235490894,54.9017833202699,58.0084978247824,49.7535758828995,61.6750592369354,79.490257479896,57.1868871879322,79.337923490509,65.6807509067867,58.6286837938539,52.1284785774753,61.6265232877609,56.8562633709235,55.1886092878929,67.2198824890584,63.0386130203521,72.0862518416374,78.0545350467885,82.6290751762366,101.290801454766,85.1903598675465,70.647878472657,77.3679465052757,87.9876989728681,60.925955870803,56.1445590613022,60.3692883298289,55.1970305207896,57.8063002088148,62.0317921848477,53.3769403618266,52.7201541304612,58.3322704967248,61.6012879526481,59.9455845983341,59.4355727790347,82.2549343310232,77.796217379505,53.3888305170279,68.7496172487488,59.0708424996852,57.4685716160073,62.6877831924636,55.524682895282,57.9349414829529,62.7658034316686,54.4531179353296,65.3108711334686,84.7419980918126,60.4495953568423,53.8941342025941,59.7096333011661,53.0747399952498,60.7032909125938,59.5933922845931,61.6231723263013,57.2140843745656,54.5793034126061,54.6266644621887,81.0894561045568,58.3218605373108,62.7592225307318,79.6027857881657,67.7847549496774,52.181029209764,59.1136207242698,50.1774977535785,57.8940341128813,60.6897916454623,55.4900343566561,52.3715342622766,48.1420942430445,60.0801911454698,52.7612550180893,59.6428627580743,54.6001513172405,59.0326229399831,53.2519535755664,65.9125954099686,52.3399920398823,50.7009106480385,55.9119996613796,54.3818391202267,55.5783148823075,51.5062733619055,54.7244268000441,59.3251761340244,71.5852159027561,53.6456467769445,64.6829339902972,57.5713019324671,55.7701647437327,52.5182321038145,53.0944559816126,56.4476023785004,53.6816734733082,51.3060674899538,56.0098593437492,58.5164734539936,53.7112363459174,59.7390678333144,53.352794717423,61.63763506033,63.4638296722424,62.9982867315917,65.4845192932655,57.2625924776144,55.1859880522708,70.6236261106976,58.1704533589453,55.4419475914149,57.0823104515196,72.756329375658
611,0.523339097916193,0.471069284979163,0.472978569909631,0.448526314256449,0.457283713930875,0.533314905663773,0.484373136595216,0.436311490196079,0.44343949684812,0.437034900483881,0.465517235978667,0.596049948886996,0.609246601019666,0.446047415650819,0.460890893391377,0.439122916776402,0.441427958401658,0.43549205931981,0.429139257067777,0.509253602104781,0.517130825149413,0.549102319984035,0.547625957048473,0.504957771090921,0.619371529304203,0.520716156819532,0.465482523245769,0.524625390913122,0.513035705930679,0.573847075043037,0.509078081867305,0.506708825254531,0.523186584467536,0.566675907806086,0.565480095177704,0.542094157493835,0.520914565596994,0.516440177803352,0.496818633860258,0.571085780473012,0.577382680885466,0.550117681082982,0.562908211046859,0.457441522865057,0.511029618188506,0.56715508483648,0.55407025219429,0.518973677823965,0.556434144522354,0.554118160855435,0.554316456434619,0.574800016821682,0.534525096164331,0.506950171140888,0.577809695408915,0.561812013145369,0.541762666863141,0.580158226519016,0.565692349363644,0.641133346717269,0.508992259665604,0.624672487449211,0.648254381747821,0.50625828475031,0.584421958887803,0.595140759097808,0.477967755376698,0.62169900008012,0.558578583587286,0.54956387301861,0.693377561916424,0.78189605804804,0.987330227410242,0.709915489563002,0.577906055546897,0.567771961225909,0.550783339196007,0.384338906767645,0.430158074287883,0.401608293302764,0.424628475706162,0.480746083497879,0.475452759174662,0.340854691222111,0.33232761521727,0.313848225304265,0.396228690063424,0.465064141885833,0.538884424520746,0.446344309064795,0.396613366903897,0.369418364109178,0.394346606922108,0.482600656717052,0.487212216886608,0.55615991390025,0.660326430061321,0.457319736143959,0.391842207899629,0.423898343547846,0.431175469896915,0.48398014379513,0.602945541399824,0.575554021195601,0.532352580711482,0.465910281021143,0.465870674793893,0.440055909832113,0.546778641174742,0.626551922079622,0.558866755400714,0.555270252880558,0.56733435084711,0.457323370792686,0.449360604482406,0.551847333674839,0.581452445940538,0.672596324877104,0.603112584626415,0.602468542114555,0.422555307345949,0.415324661191497,0.452760073885289,0.431015284190529,0.435612778184743,0.459309283321346,0.469756067044468,0.4935246998527,0.542996242564626,0.515357071303281,0.474891891138602,0.397693929070061,0.48869681633244,0.561240718330696,0.475926345017737,0.469649733214024,0.462713639482989,0.446322446876199,0.453510151027433,0.485226965839245,0.527667866954127,0.473933961541847,0.459933694023604,0.601681972780074,0.464853268021069,0.418185968287695,0.444410107770898,0.485690904103387,0.469550498151071,0.54620852667854,0.570609211836089,0.514625896921669,0.640483456470107,0.891283865597061,0.732808361657862,0.554159531098058,0.564717180750645,0.656300589184942,0.556804136821524,0.603276957874151,0.528544929355837,0.543547532568106,0.585931525600812,0.529025563321821,0.586742142023499,0.564885867472622,0.638861407879087,0.561677437437335,0.530002372359448,0.55250937447367,0.615852223327797,0.548221991314182,0.633548875676365,0.57357844172477,0.591342467335755,0.643339664698405,0.582423218044864,0.522659197844756,0.636353323402082,0.639412653265206,39.4964059074139,42.0380202287281,39.4480079654614,39.1128392878528,39.225482558641,39.4616902654638,38.9770359234756,39.5162431133814,39.0231029684322,39.1960998940206,39.8090763151516,40.5139471045041,41.8737397839908,39.6930732640684,39.3611538153553,39.178810123813,39.0565449720225,42.5040716312259,39.4980384838817,39.9278572411571,40.1410038050299,39.8272949376162,40.2761579893268,39.5269875931972,44.3650021209428,43.2561839001887,39.1657621163145,40.1886878676634,41.0163634084491,44.3553770011208,39.6141026959293,40.6947360992462,41.7277264196835,40.4193882539047,40.2049774889364,45.5918085236008,41.0705724174679,41.5301555527727,41.4340649491784,44.4950135088916,45.4298158208598,40.858529217665,41.7614123555764,41.8006669400942,41.456260685003,40.8910977780362,44.7938198265908,44.3628263018153,41.0276062281653,40.8966359867418,41.1897788646215,41.6808191101236,39.9070052596649,40.9333981260521,39.9277639611572,40.9342003011914,43.414641962938,42.5340151431931,43.0105716432151,51.8509209295531,42.3827195476734,43.5824565778497,62.6297287799221,39.5428366279591,44.0577077516517,44.1722160403879,40.6313840489346,41.2355819874638,44.8216975343405,40.0013489326326,42.2565174215655,49.0807754875362,48.6721984383966,50.7937863161726,47.7419733544997,49.7330821237295,57.4414160958206,45.2726980745059,46.2348062956428,43.7013589878744,50.4228780003137,47.7578153055556,49.218845333115,50.5972691462446,43.4872453121177,46.784729724071,47.2897379019725,42.5578120102047,44.093203132623,51.2292563148856,43.247844420932,42.4223060842742,45.634964005063,50.7361681104112,43.4602818138363,44.0210557069235,42.1293914686676,43.7701306638525,43.1278555422207,42.8208670037005,42.1516089324901,53.5530825901558,42.4295274990829,42.104419856443,42.3973425109564,42.2153203529639,42.2682405371069,42.2268736633293,50.7404543209959,51.2861405217131,42.9016715480822,43.2744657769847,43.5074513650355,42.6173866108045,42.5983671542204,48.9751226701633,49.9806590106458,42.9331635784278,42.747038235752,44.337829131642,41.304775327015,41.5834580039373,41.5546720944289,41.5807862133398,41.5486547693413,41.4816169100098,41.4633092620636,41.6370670485471,41.4985713630329,41.4234208092185,41.4637339154865,41.4263698532273,41.4328869244353,41.5367474889162,41.4948646553882,41.5699992628543,41.5436694475598,41.4622449259456,41.4775619918676,41.5258660852499,41.4328696413871,41.4226648706287,41.4627051160221,41.5453432127339,41.4278403583396,41.4283316263386,41.3782954538222,41.5040160424352,41.4327355196687,41.8040974481855,41.6052846286914,41.4896702591998,41.7835487443446,43.2773743423405,42.4574264997661,41.4765925833718,41.4267608115256,41.7031169562433,41.1546172820081,41.6095609228811,41.3094763977814,41.3216562248586,41.2423019162947,41.3132627381426,41.2146842032309,41.27420803351,41.4717266032457,41.3825907450932,41.4655499393701,41.3873280396623,41.4326527876787,41.2904424088121,41.2445015116542,41.2688387034823,41.3672347323249,41.318474624847,41.3832985665665,41.3040507562628,41.4313653152516,41.2585018881765
