0.976023819,0.812135925,1.131321566,1.049506522,1.094053237,0.834160053,1.075530128,0.986557894,1.015693107,1.078707572,0.942117984,0.939630577,0.948570821,0.905287606,0.86103342,0.904305748,0.547646395,0.930652174,0.643962233,0.97924668,0.999325347,0.863640639,1.109225149,0.972194959,0.993117245,0.870221585,0.687946129,0.914624956,0.199207435,0.364916327,0.214210716,0.588116087,0.997035565,0.06761182,0.294964356,1.019055671,0.147969461,0.803971888,0.926892066,0.865320451,1.020620223,0.837837716,0.984705259,1.07502433,1.088922187,1.172182559,1.076958523,1.104306744,1.081746661,1.169574975,0.927498892,1.001381273,1.103766674,0.990726747,1.039499537,1.202500212,1.067388485,0.896382402,0.995275955,0.980928828,1.120710978,1.220675066,1.074468641,1.13189279,0.966295075,0.998576395,0.907408665,0.532316153,0.466722339,1.060841884,0.08873559,0.613854044,0.637504887,0.726344799,0.311780492,0.830377309,0.435911679,0.441902425,0.340690343,0.495749111,0.845540684,0.864201408,0.847047021,0.90894358,0.653847882,0.922915341,1.044129815,0.806876258,0.855918368,1.206077977,1.133641731,1.17316072,1.030752318,1.048118908,1.152825569,1.158182169,1.156299452,1.002781958,0.922128398,0.977420846,0.932559598,0.978682573,0.887503801,0.984271015,0.929045872,0.84347466,0.694092509,0.745320266,0.911201768,0.98996084,0.969500965,0.935892944,0.91619814,0.429286352,0.658050048,1.091189699,0.706804418,1.129128868,1.035313698,0.992088631,1.056093006,1.150804372,1.069127479,1.18070644,1.037965545,0.80038573,1.114880168,0.974000546,1.041748728,0.554373997,0.57441183,0.77631033,0.970687329,0.96209343,0.907242769,1.015066146,0.958217993,0.879538496,0.887059612,0.803269916,0.943530997,1.002453842,1.009988661,0.839164124,0.979086238,1.019960606,1.027731031,1.192553852,0.936916107,0.992189651,1.045601137,1.061652983,0.676104125,0.80999815,1.15252139,1.07231726,1.025398668,1.054654514,1.041253911,0.953740936,0.927569856,1.042167156,0.993749186,0.885133885,0.969149245,1.133284022,0.658071058,0.843310123,1.016534427,0.91136703,0.822113695,0.733424571,0.907542039,0.704683032,0.85009581,0.918117991,0.92232545,1.081223037,0.716293746,0.64569874,83.51187035,80.77426582,72.09874765,88.12886989,70.57064127,89.28407013,67.92513971,78.14765097,75.83284829,67.00045063,89.38049444,85.02610712,70.70348745,104.3527206,104.0841784,107.1393855,122.4091531,110.0042774,97.49994256,90.67374716,98.61524493,68.61576494,85.33447857,72.97028628,89.34558704,102.1015985,107.3244034,93.09827638,112.7915956,128.1196977,125.0824935,126.3432638,129.5857539,118.2823019,105.8143617,97.44633611,115.5336979,102.3237841,102.5785965,106.2405539,101.5741223,131.3719131,91.14009543,81.72211768,71.00586694,72.94919475,81.59878948,94.99334545,70.32302219,67.49758298,61.71030733,56.62465593,66.69186759,57.36596616,59.40848075,59.7505239,73.8266568,75.81636336,56.14204601,55.8717091,58.931096,53.80874649,65.12970298,79.48194948,98.87026532,77.19733974,53.9313025,73.7920409,87.81829651,79.67709764,115.6201647,117.7802046,96.98389525,122.0591099,125.6383718,110.4138407,127.7778711,121.6937829,103.0209634,133.5910072,117.3101558,119.8263744,109.2072744,100.2404419,115.237483,115.9357374,83.73704812,83.34927517,149.5059471,74.26202786,79.19919732,77.27774203,80.83346303,66.48478958,61.82377112,71.63749182,54.75592224,60.00252647,62.06673763,60.47253279,63.26223181,52.16800868,61.65340677,62.51226573,58.34962298,58.74586806,87.05906193,105.5035994,110.1377248,97.3634929,54.7257562,55.14080971,82.90394363,134.9696822,111.9969486,82.4094552,125.0220019,116.3902825,93.35763656,90.57497615,63.34061331,81.47168924,72.72817409,80.37598583,109.0358874,58.19852537,67.21724225,56.44193593,78.88538536,113.1164005,120.3610717,103.2922219,72.75198714,78.36954363,89.93014766,105.220075,98.543046,67.29489053,97.17427081,117.3533193,110.0456511,58.56370141,91.30888308,115.0240163,102.9710984,65.76745232,57.03115724,56.87029541,69.17442859,82.80400868,109.3702908,80.02555945,122.2497646,122.195724,92.31387502,72.02543352,77.65027576,94.34377703,97.65535636,79.71817088,53.77681155,88.21261709,91.98680854,103.6000734,56.97438092,84.85181705,94.61109936,50.59531761,78.50807798,57.29738162,57.15265874,60.15717816,58.94184139,49.08581829,56.84679225,101.6649435,65.57931159,86.92931267,59.97076239,52.04736688
0.927365602,0.717008469,0.5774832,0.804118992,0.815943475,0.77300242,0.843635894,0.760411558,0.831895091,0.930202033,0.829974029,0.788255436,0.825821157,0.903511828,0.898984346,0.815075212,0.865952671,0.975165768,0.736190266,0.87720384,0.860313609,0.88243183,0.58675565,0.808078507,0.693534391,0.37346943,1.05434236,1.083498983,1.109223321,0.835154553,0.890854161,1.012601612,0.873021922,0.958358169,0.850782322,0.558771001,0.01895092,0.983972649,0.846982765,0.863629419,0.92442938,0.889185579,0.89117484,0.860873625,0.854498333,0.809328208,0.755197066,0.994739227,0.956460598,0.944180072,0.907441673,0.887499482,0.861152035,0.864884808,0.984596899,0.962448161,0.954341479,0.985961779,0.922071417,0.98503746,0.990514371,1.072110225,0.839814878,0.96662477,0.989524036,0.944153026,0.842819878,0.919817456,0.90647659,0.906075271,1.084477491,0.987993486,0.820779186,0.806342096,0.818384674,0.659708113,0.669698457,0.899394035,0.895743921,0.869453457,0.826034679,0.752473815,0.915178409,0.815290349,0.799849851,0.9120848,0.866181216,0.860199536,0.746819391,0.95790483,0.737167495,0.886447463,1.039540203,0.870519657,0.858521264,0.897152823,0.828045051,0.820753788,0.967045709,0.861982013,0.981537813,0.776330779,0.888143522,0.802940686,0.763577595,0.888525013,0.971081263,0.823984328,0.925756463,0.923250472,0.986205065,0.233331261,0.723793635,1.180499932,1.185566474,1.095565964,1.037648811,1.140317545,1.050920422,1.063345495,1.153395644,1.274168769,1.224116469,1.152975088,1.210821897,1.148271393,1.145684854,1.119730973,1.120254835,1.039703023,1.211867048,1.079081449,0.634106077,0.271025818,0.396098612,0.944853705,0.846044265,0.981809284,0.98876138,1.101259544,1.1535825,1.004681359,0.902078055,0.85326258,0.922062475,0.907003699,0.905745687,0.775505574,0.972134639,0.920337714,0.955921617,0.844232797,0.908596221,0.760478275,0.676320968,0.91086459,0.868458988,0.975543444,0.809813457,0.919247856,0.721083679,0.900411292,0.881717944,0.907071699,0.726379177,0.633569497,0.864338454,0.909151247,0.809130501,0.964209786,0.780110177,0.715603025,0.822768883,0.69258911,0.88993277,0.941380284,0.809754335,0.796902007,0.835648003,0.710024884,42.88521733,47.41034495,47.73826755,51.41548541,45.69844091,49.41735537,45.37070444,49.3615039,58.07512244,65.0807092,53.86938416,48.39625254,48.50462312,58.74687511,51.01057883,48.12533567,53.03826657,58.48677077,56.17487336,49.39598351,43.68440343,45.25897937,111.8654305,49.52481237,87.55809889,115.3744369,49.45454569,52.87376353,61.15633261,48.33192325,46.09464874,49.73023921,54.31514297,53.84374283,52.17455627,57.93153122,108.2640244,49.35064172,48.18447565,51.52190979,53.33056714,55.98908369,45.36603369,55.48567076,56.35827253,61.61298064,50.87774073,50.94987297,55.70114363,55.45600339,47.87173265,49.14059559,45.77810248,46.08139135,46.86517162,53.88144322,50.36446568,53.59340492,47.86897509,54.3166371,52.5676078,62.48625105,48.9943103,56.90142837,48.57789621,61.17573698,48.68759134,61.5182645,50.38641351,56.28107975,55.89207039,50.71272614,82.50963763,54.95521516,47.31988022,49.55235587,49.60548263,61.845487,57.54306645,55.20180685,49.73375852,49.51398054,57.01910212,54.42560716,45.2511928,49.88031263,46.70244914,57.22935225,54.41392543,48.91696531,50.82113909,57.85756148,57.76775196,46.81165492,43.87606224,46.1628502,46.63600391,55.80371598,51.34080316,45.38234102,55.72541546,60.4697069,53.79077029,50.78532028,51.53195442,52.27836721,51.41740658,70.66380374,49.15765179,51.68484797,49.25877798,103.30008,130.0589842,71.42560679,88.43920833,65.59570893,60.7526209,48.84944452,65.1916282,66.89803588,51.99483885,55.84552228,65.00598781,59.04817677,66.74388616,70.87952632,71.50033651,55.40027884,65.80765004,62.59529134,68.22266606,91.28919855,116.9935315,99.58183272,119.0665018,63.73345575,66.85534651,57.65215067,52.92391187,57.38875346,60.39360443,76.0226377,56.61529486,53.00594767,54.10425926,55.55536388,47.79234583,48.75173925,49.12483119,51.45018602,53.78942479,49.04946507,48.38973155,44.47146233,49.94259571,51.95566181,63.10564372,56.02126202,54.16495378,47.51155335,50.56271316,52.57335368,51.93465404,53.4796608,55.68166313,51.43874143,55.22507459,49.30004585,50.57659025,51.45163632,49.65055347,50.50666744,54.49832289,43.07430896,46.87369522,44.97754723,47.57397761,47.57325473,48.89655261,48.7879062
0.829888187,0.804745629,0.875488966,0.734257745,0.995325936,0.877525774,0.893489128,0.754813191,0.894779127,0.919996562,0.992696265,0.938321108,0.896841282,0.970191626,0.930669813,0.990347766,0.899200899,0.782644706,0.920428746,0.995597203,0.979353449,0.981023736,0.921061205,0.87200065,0.973087069,0.662083614,0.875459724,0.918228259,0.571481872,0.796279627,0.82877494,0.871993893,0.773833596,0.75158561,0.849207313,0.830263285,0.934229621,0.928013573,0.79019385,0.85631008,0.738980725,0.653688344,0.748543252,0.910244051,0.707253873,0.823986297,0.764287256,0.685255656,0.811288689,0.685293846,0.828007128,0.833012293,0.734489406,0.765534903,0.857278092,0.767885364,0.865312626,0.730957272,0.80964798,0.800006346,0.790155351,0.698448037,0.841929413,0.792999634,1.046371614,0.871902642,0.646328119,0.720019482,0.762574863,0.57079418,0.889317688,0.74556911,0.792329462,0.887361793,0.898813649,0.898950842,0.558340858,0.789353106,0.687243482,0.833416398,0.815850131,0.815020788,0.837379789,0.866152716,0.810903729,0.73065028,0.748789805,0.683007643,0.728681566,0.817067223,0.742962786,0.699286108,0.842487472,0.411736623,0.58027009,0.661465188,0.625044698,0.725502343,0.684558139,0.743213699,0.599100975,0.715201093,0.854677109,0.621677981,0.885715524,0.82990702,0.815414159,0.595927445,0.84163223,0.829341538,0.934772286,0.876894187,0.773135451,0.796662384,0.869271585,0.675692064,0.75993702,0.831569114,0.738091493,0.735111846,0.817390643,0.783721064,0.822222626,0.884968593,0.834701068,0.773420847,0.821371509,0.677057676,0.905137071,0.878229574,0.844576838,0.750384392,0.885973775,0.808722024,0.717516624,0.830007318,0.874355496,0.827091058,0.854706285,0.781970917,0.890442241,0.834759385,0.905244788,0.775915394,0.769076173,0.883690607,0.996187873,0.871891096,0.917669382,0.972913834,0.893853351,0.708005565,0.791523907,0.922531303,0.615302622,0.769762452,0.792804143,0.637427948,0.808080563,0.740585007,0.676794707,0.60434374,0.774860788,0.828457293,0.822962693,0.64657074,0.789846239,0.762261083,0.733824694,0.653208219,0.658304503,0.737210258,0.781437302,0.816420073,0.651730701,0.708955354,0.689360444,0.623316355,0.675269303,0.736444259,95.50960333,85.56112188,76.0542586,79.98492411,61.06349126,84.94470089,97.42791716,87.87883537,69.10387014,71.11999451,72.13371461,84.66396064,93.0432076,82.20582353,95.01931747,77.18732912,99.0626097,86.4516111,87.148506,94.57153113,80.43124734,92.27900357,115.4672613,98.07411125,79.67169873,93.00017802,79.92094585,70.57489039,111.3123144,91.07885335,74.36546671,70.2314927,70.06701076,82.62725539,84.96967438,92.99696658,70.16191691,57.32927183,58.76333942,72.47118626,81.57175628,84.78234181,85.34391636,85.04188852,90.24150464,99.62823133,87.36888853,83.15916233,79.05312244,81.6848134,92.46657715,96.10899627,83.88485822,92.81757157,90.57776299,83.8622433,91.0572062,82.5795927,66.66372189,72.29320391,85.61712124,81.33352072,89.93204205,98.100202,91.64800062,110.5488221,90.16865986,84.5585878,74.63399312,89.34056273,80.26841356,98.78754781,80.07460391,79.67362308,73.22295604,68.42855859,91.67906057,84.8281954,68.79507155,81.39090995,101.7060074,86.66995674,99.58286604,131.2077025,100.8085998,75.11244347,99.06704896,108.7825153,100.5503605,83.45277415,83.77426199,60.40001294,88.64614987,110.9498632,106.8500069,86.06409195,115.3008055,112.3172785,76.69512427,76.10825396,73.08372568,72.41601945,88.42328889,86.04423039,82.95869521,80.65106796,74.70104183,79.93460719,81.49815237,100.1397229,67.17996487,66.40340655,80.22001011,75.05415663,85.34816122,76.20265833,80.55446839,99.84860334,98.73792388,77.17013929,94.92910512,70.19452767,81.81135718,74.73769872,84.57561601,90.54705256,90.0104431,86.93559171,86.73561417,90.65574166,86.59519958,98.19309224,83.46213201,79.60598981,83.5132439,106.936417,72.89966739,78.83429107,62.92213896,88.20536588,85.77006663,71.83399659,67.69499309,87.47079155,113.5851924,89.07061295,96.76877378,80.84550777,92.97494245,77.47397224,99.92428765,89.1403992,71.64781716,77.65715614,75.73967381,77.50697154,82.26232029,72.74756379,63.41876911,82.40453614,67.14806076,102.9956651,100.3597879,72.02568764,74.39666769,89.29814816,78.76159118,126.0293674,110.4509335,102.0883695,93.74827221,98.34384603,72.19545133,83.97602359,66.97945399,103.5468084,91.22361159,73.01345111,92.78225044,77.43394145
0.589862797,0.690621194,0.936533339,1.028638368,1.017564818,1.207605294,1.023628673,1.272421115,1.228274738,1.269533,1.162698105,1.050279267,1.219371356,1.359440045,1.418583488,1.330471528,1.446252353,1.221530429,1.349502804,1.393651504,1.274866761,1.185796184,1.268915521,1.201892229,1.263519654,1.206110723,1.185901589,1.202763496,1.238557667,1.316453446,1.246805597,1.260350937,1.293956858,1.185963714,0.664931253,1.037586504,1.068079535,1.220563445,1.230247708,1.307662694,1.208114989,1.256706804,1.189420515,1.201918033,1.246216846,1.141097534,1.310206347,1.28524835,1.100456627,1.137129085,1.264380208,1.20525174,0.892705701,1.178222557,1.202257625,1.07960752,1.28171616,1.332817873,1.098044913,0.973982222,0.983667675,1.013331708,1.160604226,0.923510873,1.089097342,0.962255518,1.233403996,1.213466367,0.888783894,1.139280764,1.112359254,1.173868884,1.281647506,1.104717263,1.238022141,1.232745964,0.756019733,0.971722323,0.914494829,0.939731523,0.86166122,0.61911083,0.564162438,0.717335877,0.684836777,0.788497538,0.60687661,0.769649274,0.556540329,0.836568214,0.701720923,0.9967863,0.743691814,0.559437366,0.702081132,0.658350858,0.691932949,0.732971772,0.842824744,0.905285186,0.635483377,1.068177646,1.197131273,1.297819191,1.144993921,1.325376105,1.301641279,1.302487771,1.357283546,1.199384616,0.891510856,0.759889862,1.230442779,1.041021869,1.118780661,1.180996451,1.125450361,1.146470297,1.185279189,1.143522942,1.064656977,1.128903396,1.193784807,1.153371917,1.113505441,1.087215135,1.140397018,1.096243087,1.197240326,0.801383985,0.844248654,0.842735847,0.792685525,0.848095953,0.614558253,0.68682614,0.701161501,0.84416294,0.879177258,0.684939174,0.473171637,1.072398468,0.848746987,0.719178923,0.84146694,0.829461646,0.527001732,0.696550127,0.736302032,0.595017515,0.733585534,0.837126982,1.190248608,0.891835882,1.0353867,1.083897182,0.854083611,0.844844503,1.013103697,1.139250981,1.037466698,1.044467242,0.930909075,1.45500417,1.262313703,0.57184221,1.13049023,0.894160447,0.905349329,1.135554082,1.058394979,0.813185334,0.925773405,1.082535908,0.861753168,0.996038131,0.563437019,0.944587248,1.064868757,1.090875511,66.72588546,98.10255482,55.9056051,64.5275636,93.23880585,63.30908014,107.3354127,53.76493695,53.75949314,64.31589678,47.01541979,77.2145864,57.17298654,49.52297139,61.55587495,50.8056111,53.85525025,53.49333825,53.87159201,54.72213348,50.18454456,50.17342383,51.22562019,72.39250157,79.51472241,52.64184991,90.57641451,58.5256325,46.20372709,61.763842,47.351924,47.90129522,51.47423708,61.99460773,86.75181729,119.7387127,43.10612669,46.08509437,54.29749509,69.43599135,44.79469736,50.04846942,46.62875913,45.308367,49.06408262,54.1243625,53.81003339,65.17024221,108.0200326,43.09251241,45.48706311,68.41775712,80.99956516,52.00409631,60.12921569,77.60042572,63.63101333,56.54682433,50.74340535,51.8235502,81.39748638,70.97348453,57.68622743,66.20141353,82.13417967,90.17434095,71.79979686,56.98063146,71.70561795,80.89560328,68.73830441,60.02061375,54.62262169,86.67676439,57.60313998,59.79670651,95.94801405,129.98443,92.41684397,100.8443647,83.90139684,52.98653918,105.5487067,106.9559638,57.72314564,58.22102432,110.3179439,99.82310844,119.3146815,61.79525397,68.48809396,99.43353456,82.17063459,99.99740262,73.73207142,97.98027621,75.53240737,62.58710969,69.24314215,86.23109315,89.62587104,49.49546375,59.80877786,62.0923664,77.05577225,62.33535816,50.77652058,52.87418127,62.59684315,68.77309745,86.69280024,76.22010915,67.43536401,83.31219602,112.8070234,67.9028877,58.78268818,72.42477952,64.01797965,62.10542855,51.43502696,77.99828467,70.84363868,70.34903453,64.58453848,49.55186338,56.9889738,64.716263,62.33367118,77.99050641,69.87294375,74.55901616,71.92377473,90.88115744,91.3302142,109.868937,114.1555179,97.93259063,69.48891925,61.50814706,56.25967884,66.71837142,76.59244085,115.7918946,99.5225906,83.31382162,104.2592568,88.05290237,93.16934146,132.7918583,71.51374465,104.7086934,70.17595859,75.90151908,74.37277328,81.80312531,87.56908869,98.63041121,94.25499742,63.36209027,76.73395117,75.37009974,86.32196127,56.89493144,55.67955488,108.7497027,92.03572951,75.59687875,93.21926139,60.19691982,96.55386235,92.95371939,108.8118177,69.78650367,74.69568863,88.23693444,80.09501819,60.23208346,96.06882673,55.92715805
0.870071157,0.986494991,1.01753486,0.95527386,0.987675735,1.10098729,0.953685243,0.638526832,1.112036852,0.825187641,1.027436413,1.075650644,0.952299022,1.097841881,0.843111186,0.961423566,1.003429754,1.008091843,1.07294271,1.098971613,0.842822071,1.151661768,1.036688369,1.09571056,1.020237116,1.013722832,1.030053792,1.000193327,1.075107086,0.87264587,1.133239822,0.289165361,0.62644354,1.185731745,1.117381259,1.083045544,0.881415705,1.053143863,0.925690671,1.145323341,1.005625401,0.946415499,0.759159548,0.86616419,0.905293971,1.081278445,1.060450986,0.849906941,1.149009047,1.043004165,1.221565123,0.930606846,0.743248765,0.949514191,1.039098899,0.912156928,1.169386744,0.94234042,1.012168372,0.703912015,1.00895624,0.871960677,1.042440735,0.780458238,1.089291274,1.014809886,0.74194303,0.968851029,0.976346145,1.048243654,1.142598737,1.068333393,0.822684333,1.032181567,1.068039058,1.023446804,1.020465272,0.089852868,0.306304058,0.982116199,0.794778122,1.077295079,0.751246248,1.084532413,0.955640266,0.991755608,0.897491275,1.036841062,0.730652319,1.004351579,1.015932505,1.025358111,1.065039775,0.846693986,1.117328991,0.958768283,0.864629491,0.520520891,0.91118277,1.032243608,0.924611616,1.020513885,1.05863268,1.029857434,1.08401764,0.897195445,0.901540606,1.148130673,1.03205597,1.00701,1.070076681,1.044350703,0.696628072,1.106495429,0.827008044,1.069687279,1.065460668,0.955648066,0.98354235,0.832813844,0.953967542,1.03475994,1.035252995,1.052513509,0.555810642,0.818774494,0.949506872,0.959618339,1.188576871,0.76033397,1.12202514,1.013504908,1.118707176,0.745926333,1.023309417,1.072698136,1.021541502,1.194701269,0.959234271,0.971773747,0.845760956,0.838951884,0.841605656,0.928015445,1.059301511,0.883949195,1.011645213,1.015078658,1.112572212,0.850869737,1.102778556,1.009205001,1.008964187,0.779299723,0.987631136,1.194922828,0.900225481,0.967035646,1.074496123,0.787906192,1.03541729,1.117685278,1.019237612,0.839911809,1.194626942,1.030864352,1.014208396,1.117829135,1.074666386,1.108162387,1.030588229,1.123900937,1.030300066,1.036088479,1.078201313,1.060865881,1.137026822,1.077846077,1.144711569,1.221855149,76.80761987,90.99905022,97.30099139,94.37197404,81.83473006,53.95306319,75.79079592,120.8226519,69.09563158,71.52580932,78.1927192,93.80287148,75.01199793,77.53726794,85.63098373,117.8143691,108.2271824,107.8782143,72.87382426,109.8257993,65.10743816,116.2929453,75.43073888,84.99247918,69.25161119,82.38025324,66.22277889,85.15131691,76.38397792,85.70228004,50.67015119,112.7340245,112.0952489,101.7124785,70.57177979,73.41312082,98.97436218,56.87532903,111.1998521,108.7468074,72.3290934,81.59066903,91.76734468,84.07019303,60.20707534,66.70237319,69.95962366,58.61224439,69.59724657,75.62315149,88.98655005,85.4002804,78.481552,99.70481417,71.50840722,61.8321476,61.56505286,53.8488655,57.17658667,97.87657467,76.3022649,65.43334299,84.44133631,76.9795853,70.93362344,117.1031541,112.7798945,83.16502229,80.91305076,69.87415567,84.11795072,76.97700388,67.07824254,70.16373924,69.16707133,72.57144535,58.86710272,125.0327644,126.4531044,135.9536891,101.5066068,80.64933451,130.7761089,60.41856372,73.3623002,61.48606811,66.84491015,59.96150011,99.74108169,58.94982199,129.0005463,77.64984758,70.04105171,94.263356,68.0593344,66.00703294,77.65831111,96.42518537,98.92439496,99.3763524,98.79265736,78.17507571,70.37879372,89.21618629,308.3681904,63.16951004,55.93653804,66.60130194,62.82981719,62.24136505,58.71292942,82.69434144,111.8120186,116.9477486,128.0717552,62.69954716,91.87745726,62.63666939,62.68413332,118.536035,85.34528698,87.43158684,69.31905822,73.92885013,102.9034338,78.48075019,73.66414383,105.9351988,64.11154685,128.5296706,82.96103509,63.08749768,58.63877226,80.32085927,58.9581836,56.07538216,71.50582972,72.45564709,54.40793537,92.03995865,70.37555815,69.49092566,93.49928615,61.56246299,70.63780214,64.63724635,62.55584818,71.97256038,65.54887144,69.85511667,67.16670055,67.81008818,57.02719341,57.1429154,111.5002193,87.05938311,60.4920565,69.82514863,60.9217818,112.8270709,101.5216299,85.03367769,63.02170719,63.33872464,80.90372113,82.40683331,102.7635384,66.43575065,54.09355597,62.37267326,63.96164894,70.43737451,58.2597554,58.22717602,57.61287519,54.43955359,68.95191247,54.19254352,54.29754118,60.67590301
0.376360791,0.489194586,0.404745842,0.453892759,0.374634251,0.488659449,0.435442758,0.558148113,0.422478793,0.402297017,0.403181089,0.379934237,0.448749804,0.41441634,0.428234755,0.726639866,0.567403311,0.497373369,0.409940618,0.503165651,0.476471307,0.409389091,0.537981629,0.386819546,0.439150387,0.503701139,0.492930542,0.464924646,0.444209381,0.46478298,0.41742935,0.443993927,0.46937224,0.438804697,0.463746084,0.501509253,0.534348078,0.449078693,0.442746758,0.506342545,0.538338913,0.514017764,0.567965915,0.523577492,0.52294127,0.644406428,0.635289778,0.500743882,0.539213351,0.462746104,0.490816447,0.510593128,0.456409014,0.424982008,0.464549206,0.467192414,0.495271105,0.434133383,0.431099159,0.380462617,0.410030109,0.529361464,0.497309238,0.4526007,0.433293828,0.480804744,0.475395638,0.397186226,0.429154169,0.489982935,0.488993824,0.424104706,0.433894512,0.484472951,0.437096527,0.403818847,0.494605758,0.456451201,0.513499396,0.403255922,0.460850682,0.409041421,0.426846835,0.48368944,0.468249888,0.471603985,0.386684317,0.392143841,0.407433572,0.411060662,0.390445888,0.565406447,0.486748608,0.488309531,0.383750477,0.383938908,0.568557275,0.403524556,0.397066049,0.515468762,0.524925544,0.405749558,0.390090846,0.416237566,0.396346298,0.53705699,0.453291343,0.461381892,0.488179718,0.489583546,0.507447832,0.542901982,0.510300797,0.493739714,0.441941876,0.482121713,0.492581208,0.497131769,0.533538714,0.477728131,0.450468312,0.693322438,0.714783281,0.548818249,0.441657138,0.537304838,0.525214884,0.482464547,0.605662323,0.468060125,0.461422327,0.445742708,0.460557233,0.498511616,0.49003905,0.565125115,0.509600199,0.490709432,0.463104727,0.562601996,0.442163385,0.439641776,0.456510063,0.435497928,0.427930072,0.422343312,0.447863687,0.459437791,0.455250137,0.487731308,0.449651857,0.4552477,0.463780879,0.445847805,0.431149943,0.461019192,0.437521862,0.494118137,0.47551088,0.455039384,0.481670671,0.488421098,0.450220031,0.456203929,0.439135444,0.429244032,0.481591645,0.509017004,0.493231229,0.577327831,0.468103406,0.421641094,0.677580622,0.549002584,0.367422267,0.52902752,0.449364245,0.491170147,0.436376074,0.383268146,44.17962586,45.5153599,44.32608262,43.76551207,44.03495784,48.06172718,46.92736057,47.48413718,44.48305477,43.96552415,44.29236641,44.08710181,47.64025825,48.70639619,46.32909569,86.50993233,47.63188097,45.22875979,43.74481456,45.00689278,44.3548184,44.36081181,44.2635029,45.01784528,44.16958077,45.23181415,44.04868667,44.54028427,44.53069273,44.33857372,44.02454078,44.77634722,44.61801618,43.41062104,43.40089405,45.75220424,45.44654409,45.01683044,45.40356194,45.60133114,46.63754686,46.02192455,49.22261949,47.05224666,45.40659519,46.99943414,52.72213199,54.48043887,57.86233818,48.2295446,50.39788356,54.1173995,51.3411148,49.04216906,45.20762911,47.98416723,45.86235774,44.49798917,44.68852548,44.3168008,47.46790856,54.50140706,49.3759048,46.08378153,44.27695332,45.78018643,46.18802514,44.20106281,45.34669312,48.98977615,47.23539477,47.82622914,45.55062411,45.17219217,45.36119362,46.01506951,47.14068734,46.68371198,47.17105247,45.71110667,44.41136287,43.9555623,51.29900241,44.82419745,56.28203357,46.64196204,44.99619819,44.6232228,47.46953872,49.84286352,44.09572992,47.7454126,45.1896727,46.64471393,44.20637951,44.87587183,53.70116979,45.8276504,46.80984523,54.09242162,47.48567233,45.21808397,49.44362824,44.71323328,47.8948406,67.76160413,53.80567213,49.70882173,49.48210638,49.98556872,47.1402314,45.79182129,45.00563654,46.47611564,45.3368122,46.77218957,47.26700906,45.50756557,47.7731477,44.16734678,44.96378261,77.61493834,55.59843572,45.45751534,43.61239148,45.36310543,43.91614321,44.70230844,53.83739532,45.17612374,45.20147828,44.73666402,44.69709919,44.18169122,46.08299554,51.3967799,49.44890883,47.19953137,48.2601778,43.99903121,47.4711278,47.54946635,43.80220337,45.53534499,44.08589141,44.7304544,46.06907613,43.19748658,44.15116734,46.34930492,44.67578269,43.48934743,43.27215411,43.90244688,44.89015091,44.11234731,43.89563973,45.55819282,48.56822506,44.43640217,47.58797214,44.40963744,47.97761438,47.11432824,44.85164407,43.88100238,44.25485815,44.27866886,49.16261154,52.85884938,44.42948286,46.833386,53.07870038,91.60923922,44.93852537,51.94150143,51.89415151,45.99650192,50.1166345,51.75740683
0.376650861,0.422267244,0.440056786,0.401309291,0.493271057,0.451417957,0.509979869,0.42408842,0.402828085,0.467768112,0.43870231,0.442636568,0.381313773,0.416839591,0.419838557,0.412881057,0.419887018,0.415024357,0.406053426,0.459983734,0.436811239,0.400088231,0.35421964,0.460637342,0.3788599,0.429229941,0.444771941,0.44070642,0.484518868,0.431504924,0.412646821,0.438605955,0.544551493,0.477376381,0.466488909,0.464925739,0.403365556,0.439910639,0.388390818,0.421546769,0.45853063,0.474085322,0.453791347,0.421464801,0.446707471,0.385261554,0.40431452,0.470684221,0.459058033,0.380772496,0.395769218,0.42005222,0.41079662,0.446609183,0.449505998,0.43917128,0.40282874,0.466791992,0.396507968,0.467532411,0.458922521,0.439979111,0.482762291,0.400722124,0.464268547,0.467666736,0.471599771,0.456288722,0.402337364,0.413676934,0.428870104,0.421992071,0.445907361,0.433066064,0.41918363,0.435328366,0.444182079,0.445925973,0.439521696,0.478684937,0.399036523,0.423540683,0.435939103,0.364304557,0.430419535,0.439745248,0.405009057,0.463488178,0.44089716,0.440940493,0.377246215,0.433677773,0.494774489,0.405224678,0.422076961,0.453215519,0.441449524,0.452717008,0.469313267,0.379112576,0.393078704,0.410589097,0.354934956,0.362363243,0.377600786,0.433604929,0.423766928,0.404919133,0.383674748,0.34136149,0.401830127,0.448735795,0.347005441,0.338903659,0.43175464,0.390876674,0.42839766,0.372258706,0.406403281,0.460401878,0.339087278,0.429265571,0.376532982,0.344939225,0.372661512,0.388192856,0.398234319,0.379024816,0.414446806,0.401979754,0.346994474,0.381658186,0.348888684,0.353009953,0.385944101,0.366137881,0.334065286,0.369798113,0.420899748,0.319547958,0.419517519,0.44088528,0.416793632,0.385950288,0.420014214,0.386959541,0.416814663,0.388044773,0.415973524,0.342852816,0.408724506,0.369111585,0.383104992,0.395625038,0.515112795,0.459251584,0.48816193,0.463454454,0.409521562,0.41575721,0.438111925,0.45645466,0.443746192,0.394285132,0.471232357,0.601051142,0.635645531,0.597777957,0.550647652,0.607703507,0.637753081,0.66235121,0.558103831,0.503848234,0.513629442,0.554284905,0.524680608,0.642783354,0.64705708,0.391329831,60.07356777,65.83747407,75.67278386,66.31255733,127.4332556,59.84406621,65.56729747,71.60527311,57.34566347,61.38988661,98.81446608,60.56929045,58.02636527,64.43372843,59.4426367,65.22653495,64.87711933,67.63622379,63.79431855,67.15358811,63.94715771,67.54784975,54.53917185,70.87083107,72.83268274,66.81915259,61.88530039,66.25550894,65.54239195,56.08494689,58.82410238,55.34445672,57.54371194,71.66472778,86.76332056,79.13271339,53.45548934,59.6263215,59.76972909,76.97619083,67.02905063,66.85599511,88.61449375,72.28178121,64.0446465,65.41920324,61.18956539,94.36182475,75.28922753,91.00369952,74.56606819,69.30252186,63.43641892,70.43171555,54.20491191,65.03903287,81.92434561,74.56346223,74.78840469,77.55321883,71.80786816,77.88805078,74.39523131,62.52658729,75.3196475,63.82294647,68.70434272,72.89059417,83.55322577,60.41885928,72.02565335,68.49789563,59.57109275,72.61300585,74.47552566,68.02724749,73.50531762,55.9781891,58.43232121,89.7248486,55.48028121,62.31717056,58.65053346,81.11978096,70.4983201,99.19071239,58.97145467,66.97989518,60.71684269,84.68385234,64.37100687,60.42906193,70.17132098,59.01583485,59.64096471,67.45396956,74.72274738,66.46180166,85.14851553,68.48102201,58.54927353,70.48853763,82.61258586,111.2991762,104.9954538,79.1478656,62.26763099,102.8748001,62.86740382,58.60627314,70.60621191,80.9866285,55.30756645,60.49667975,59.40023372,58.40495655,60.86679499,52.53264147,57.17516913,69.60223271,83.17567546,67.85669697,72.01741663,62.21061288,63.75046988,65.36836996,53.69303498,76.99644009,64.78274921,51.17660067,69.86859753,99.10280486,95.10313684,77.43345705,60.73022437,61.82458999,75.6990715,98.72915435,75.2882697,64.11802926,59.32692433,86.70452663,83.52177138,78.38529919,58.17340124,66.47857431,83.94321216,56.47999459,59.78300905,79.46031512,74.36740407,58.06353117,59.08049363,88.86220243,98.37609631,70.00919701,65.23662789,56.50567372,54.12449451,66.00198281,54.41650334,65.76485163,55.43620725,77.89025773,66.82934436,78.17178066,62.87850273,68.49319615,98.06679326,54.44514265,78.42182492,65.85537863,88.68952568,57.75549299,70.05743419,56.65161189,76.28412562,66.58661721,57.71989481,89.9285761
0.514469812,0.448060344,0.608852546,0.487193615,0.473114622,0.632057985,0.582264793,0.539672594,0.532086831,0.56349104,0.522024027,0.624794945,0.56782735,0.553860275,0.519794718,0.441647325,0.449118301,0.548947015,0.468376639,0.511369835,0.567567839,0.432464347,0.555774075,0.51827563,0.541532595,0.565877208,0.492422559,0.547509707,0.476241887,0.459074464,0.464288361,0.574558587,0.623208923,0.692672692,0.4408084,0.408655796,0.538660189,0.532596998,0.541179335,0.626678944,0.589039298,0.584087695,0.619809726,0.507003859,0.44034141,0.604181788,0.609453975,0.540423452,0.495019517,0.56918438,0.551317818,0.379336645,0.485196524,0.451812089,0.51363063,0.383568339,0.659595692,0.543104824,0.540080766,0.482307261,0.623886642,0.621466759,0.55503021,0.527223349,0.682360936,0.510562977,0.684110087,0.481627439,0.609506107,0.310144873,0.583711958,0.501356001,0.599448073,0.130212394,0.301957555,0.48113235,0.601968853,0.592518979,0.275658331,0.353494632,0.630125538,0.612442409,0.612174415,0.696398579,0.703607071,0.584609615,0.662946739,0.565424711,0.672149244,0.634442437,0.675950365,0.546596503,0.579452209,0.632873394,0.70479851,0.614959566,0.608149183,0.58087603,0.675515838,0.575925625,0.486272323,0.596979104,0.635555621,0.493984801,0.555205628,0.52756422,0.434131009,0.523499831,0.700111004,0.48092332,0.548246156,0.588916363,0.530141457,0.332372285,0.695659068,0.150953653,0.689387529,0.570760676,0.703114605,0.573759139,0.666153813,0.560221214,0.629404431,0.661304654,0.57114569,0.655245537,0.204250072,0.292604403,0.558779452,0.516949049,0.538799583,0.688482785,0.605615582,0.612146996,0.619823982,0.582377922,0.627298117,0.652375065,0.589466992,0.630611989,0.655246897,0.698605586,0.687147771,0.577966612,0.659617521,0.606843123,0.54949967,0.500993241,0.695938948,0.645738391,0.595171252,0.628887875,0.51415744,0.53947303,0.688461809,0.616101498,0.660443337,0.451155866,0.657498341,0.666007283,0.599264972,0.561604937,0.480678697,0.69871632,0.689765817,0.611138146,0.547188101,0.657277227,0.677783328,0.54583753,0.514816891,0.575649566,0.664683259,0.619936285,0.569112973,0.623001875,0.667270028,0.606722633,0.667213405,0.666662106,77.82696035,55.32650798,83.3144178,67.17143591,49.98255448,78.13730353,84.57368294,75.09921626,64.96708521,75.23974323,65.45893989,69.88500073,93.77806725,115.4876343,124.1073051,76.63139926,71.39863043,67.47585252,99.00988887,59.66635629,80.86706703,115.2967122,81.04308536,71.78381133,104.5282667,160.7804551,78.76020325,109.4140509,65.61760936,62.41037876,64.72440948,66.96220714,96.79319155,77.972098,110.4202038,113.0632981,92.02008382,89.12648083,96.40052211,73.55817099,65.70530245,66.63745636,75.51585433,78.39907928,89.8155442,67.97544091,68.12254308,70.95388352,82.53216339,72.32273318,80.62152062,113.5716148,97.48446216,95.56420306,97.39165998,48.86144991,80.68235619,51.00412639,71.94049821,61.4604338,64.16011125,57.52492017,78.44586056,84.58597304,73.86929367,70.36241157,97.90662807,121.4996144,119.0682715,122.8329637,94.74744261,81.34049779,99.0196534,129.9075968,124.329154,135.8399695,83.90641935,57.52189251,112.9680199,129.9259239,111.3566,77.41922792,86.94700866,84.44928878,88.98160565,94.61288573,98.74850496,97.82559471,92.88305322,85.10355813,96.04401463,88.59712758,107.9940377,69.29991318,104.1649475,121.8147514,112.5541895,91.23275775,83.16968538,87.75138849,83.53226017,77.83066664,74.69698836,70.02839188,70.27748383,58.26273748,64.60689396,85.89149074,85.27536514,96.3546215,77.48990466,77.60248165,62.56909096,122.1719778,124.5681629,123.7353235,112.2380485,103.5610791,120.5093792,120.2526646,109.008865,99.04334959,110.0992361,98.16785973,113.5807378,105.0560452,131.0182802,130.1312864,79.82260095,67.05531755,106.1252914,110.0349168,97.48376469,90.63289121,88.0485181,81.16228723,90.9641845,98.04455202,113.956817,88.79839574,109.2461281,118.8200045,122.1112943,95.7519388,96.76733466,88.02164265,96.09143944,98.89720562,99.66717575,86.1924184,82.73001297,77.59130131,77.97149935,86.09609224,72.58501279,83.73363281,79.63226376,69.23650293,81.05266873,113.6468244,87.67297379,80.48305368,80.82488459,97.72160472,94.26477417,91.62194973,87.42807626,85.7271164,70.43433573,86.87778659,82.36875083,88.74096849,78.53273979,80.21991449,89.09161411,91.19514776,86.63610389,103.3373757,103.8161034,100.5002011
0.760572273,0.570267151,0.499880975,0.509944511,0.592926119,0.826696176,0.535602005,0.493905782,0.543401247,0.466963541,0.641178895,0.623374423,0.736325471,0.016124943,0.091128774,0.211328464,0.922807642,0.782141941,0.932789795,0.264476422,0.185227885,0.356056442,0.947057069,0.034102211,0.134074475,0.339459651,0.667129856,0.665394273,0.543308209,0.742923052,0.437217722,0.583692658,0.440840961,0.741448632,0.443674405,0.428651599,0.410618246,0.449921253,0.5227912,0.474245268,0.55499018,0.420154684,0.554344497,0.489245705,0.484104122,0.544276232,0.525113476,0.505749806,0.884080889,0.909744176,0.642689238,0.48128141,0.448110788,0.466258927,0.478440345,0.403747445,0.451293107,0.387917165,0.503565685,0.551859074,0.434169527,0.392153465,0.41787118,0.451020182,0.436975614,0.440109412,0.491498053,0.406588818,0.394616874,0.441611821,0.404080471,0.438971096,0.408457257,0.439849946,0.418722619,0.454231621,0.392679961,0.419158594,0.415887378,0.455463978,0.430895986,0.4288292,0.409418646,0.455861322,0.4544285,0.462342354,0.463635315,0.43173349,0.462466544,0.402245173,0.394465336,0.43638863,0.462130219,0.40372357,0.430380057,0.410776137,0.412990106,0.403740605,0.435473143,0.43630914,0.448072133,0.466643659,0.439104497,0.444664465,0.402542502,0.417528097,0.438672009,0.47732127,0.4330058,0.42272175,0.451111304,0.456785187,0.400150146,0.417954721,0.413432686,0.445558001,0.431867337,0.438282741,0.437179506,0.409650319,0.409591227,0.441518869,0.441429976,0.449418927,0.418915625,0.451436974,0.440867231,0.414316011,0.644320421,0.907747205,0.603279554,0.474339066,0.481887966,0.46810674,0.482335867,0.488294127,0.482192428,0.405380446,0.470339569,0.454269413,0.461749663,0.456758851,0.539248098,0.445310619,0.475316147,0.507140917,0.662227407,0.464391636,0.449419581,0.449936842,0.480860171,0.321917956,0.414787084,0.17655881,0.328217342,1.173735238,1.056442247,1.21302264,1.324043495,1.337683062,1.32813466,1.193725342,1.190127398,0.062528969,0.26587916,0.564418463,0.64431339,0.51100666,0.487453148,0.508656212,0.516047063,0.696730296,0.559213463,0.711869894,0.531887671,0.554037843,0.532282057,0.513740882,0.434850938,0.473158813,68.67055894,53.97067026,54.34190058,49.81355654,49.02857892,65.82411004,52.55191481,48.25152998,48.91125246,58.18501733,79.76659476,118.9485341,132.0875854,122.4366859,119.1039511,99.48843386,95.69338567,98.75860273,114.1848243,120.6108035,120.3452609,127.5475426,103.0039116,124.6465823,139.1591625,116.0968531,99.15174075,59.27621504,65.34452819,104.7767578,62.36402794,70.71471193,50.51169199,82.82751042,60.45586396,52.58865535,61.71482307,48.59972892,58.29155737,61.11101881,67.10121368,47.04407361,61.70355188,59.18143961,48.79127885,56.79660679,71.70809892,63.49443994,99.27187693,86.44276999,60.0588794,59.96727857,61.41301503,48.34100024,55.34251805,67.37067919,51.94812849,56.77925083,50.37086592,52.74720124,59.35342645,73.07640282,48.59424251,47.99698444,49.67827212,55.62573174,63.75902425,60.95955351,58.77950039,58.17482635,63.6857795,57.6368499,54.78641678,60.00264101,68.7912826,47.73315316,61.25547572,59.22985341,55.21476116,56.92907793,60.68197749,68.20208978,57.3286809,58.71570239,63.4798692,57.81498663,52.18970703,58.18625093,48.65294742,58.8445288,73.19094362,50.66246831,65.87667402,61.79021641,56.56084543,61.44077602,62.77087948,47.5426925,48.01503482,53.38340909,56.16507459,53.0762883,47.70468285,51.40679167,71.69484633,56.00858515,54.27194695,52.76505885,54.10202571,47.9453906,61.51759621,48.73749525,56.52428922,55.23639902,49.08412616,48.82933651,47.98398773,57.72130855,54.05604705,61.98213089,46.81870087,56.04266783,59.3159469,60.8559086,70.14626833,56.26380611,62.42661722,61.23513926,66.61393481,88.32966938,55.33505067,64.43627256,64.69802443,61.98025464,48.7539912,63.52611836,57.43656392,64.34848148,56.24552002,54.46987001,49.50625983,60.10387562,71.84174609,62.83671045,53.20877667,52.85607412,75.63067257,60.76860716,49.038249,57.87367202,57.35415974,99.83159628,109.0426942,126.6720129,125.4054491,86.60500636,98.0052293,77.29363599,67.74622065,71.08275876,68.74414397,82.21023015,69.84952349,124.9572825,124.9694132,70.78855237,61.05844724,55.8829548,60.94146536,48.14418069,63.28845751,65.47835983,66.78904499,93.33048733,50.75325461,53.61715808,74.30819262,61.91143334,71.39868246,70.98070744
1.047869266,0.941400797,1.067410237,0.988834043,1.103970415,1.069064761,0.993922635,0.99100429,0.838503579,1.037546986,0.865424703,0.883390365,1.06693437,0.935575399,0.994848649,0.902155345,1.089616774,0.958784284,0.952178022,0.940033077,1.173905155,1.029951491,0.838227492,1.090174731,0.98483286,1.076968144,1.032509712,1.009048859,1.095523978,0.976355237,0.903080622,0.930954865,0.905498703,0.989451895,0.94666455,0.903946473,0.800029655,0.840598807,0.859152291,0.883933375,0.810777649,1.060456216,1.042973765,0.825277764,1.038683127,0.876710836,1.10509381,0.957048244,1.064001385,0.964092512,0.837860234,0.949702557,0.965874049,0.890100551,0.946133126,1.028665245,1.036490569,0.951754595,0.984561078,0.88783093,0.807897304,1.072951092,0.986061219,0.848924348,0.818206144,0.862178074,0.922147643,0.904162707,1.03521052,0.906191081,0.785407814,1.068192505,0.941537725,0.930562261,0.992717928,0.982861232,1.014839107,1.013634667,0.898294689,0.930660289,0.833772878,0.848944647,0.947886601,0.935817982,0.771448744,0.759654588,0.838350732,0.961018246,0.676482294,0.815828537,0.720091202,0.879905273,0.89646599,0.740306529,0.811210611,0.939067728,1.007343953,0.846713796,0.938758723,0.93981108,0.865344115,0.881699399,0.874366637,1.014749403,0.953423711,0.811960193,0.620996956,1.012477279,0.913458136,0.885533605,0.948016118,0.991962205,0.989993572,0.874573234,0.940636363,0.887982796,0.929034261,0.967311245,0.958464778,0.957132817,0.771088448,0.98689382,1.041333197,0.939475581,0.861009986,0.778294856,1.016731276,0.941753652,0.933776624,0.943038784,0.871108581,1.01021474,0.903672385,0.915541388,0.948192598,0.932595779,0.937609317,0.944275248,1.038636719,1.01298259,0.841576023,0.888037934,0.973437944,0.735802165,0.88288586,0.945760579,0.929189948,0.875864907,1.0032204,0.791002781,0.93308384,0.97747984,0.937470589,0.90638255,1.040406695,1.011419307,1.082449927,0.868119698,0.964037269,0.8151142,0.872009989,0.779802747,0.936485736,1.169325526,1.063406691,1.019630922,1.001863254,0.963739189,0.972702945,0.999400606,0.876996454,1.005825461,0.976405914,0.996012123,1.025545722,1.011807599,0.960533097,1.031964054,0.859701166,0.843909667,66.91927365,59.77892058,74.22853706,63.46371057,53.2679895,63.56066082,59.04725536,56.25080258,60.82948476,60.4944765,55.41594014,71.30571505,63.27574739,65.66706906,58.95729704,76.15907532,64.2850452,60.10566545,56.40233021,71.20469873,62.48175357,76.48657303,62.9408435,60.3401937,56.70345132,58.61684208,52.99921957,56.41094553,64.60620893,63.58962782,59.85198116,61.28356851,53.66019642,61.00364821,56.47519756,53.46082235,52.20591274,61.45510134,56.38477813,51.69986593,66.71146369,66.18944441,74.77280597,56.97695778,58.17954347,54.25222277,66.18036671,85.96308006,59.1218365,63.77512274,58.60832853,67.14526813,65.88301604,57.739857,62.06980616,61.73653656,58.93593297,67.83877675,63.68428814,61.13215904,56.52993616,69.81089385,57.8896916,54.5729796,53.43050941,54.8760881,62.59272778,65.23067307,70.81508432,86.00066717,98.04619018,70.27092399,63.02875078,61.02889876,60.81894368,54.67991098,52.34366963,60.43652496,67.95172637,64.83113836,56.62254906,67.89577957,71.28613694,76.59050522,62.8133708,56.18240435,55.72805638,70.2356007,83.24810478,49.58726265,45.80447097,216.1941335,52.45962057,53.25245405,48.37351636,48.01141945,60.26209114,54.80658327,64.27988752,56.04225172,100.0291553,49.94024172,52.16918028,62.99863248,63.96834315,78.64337821,99.67170615,64.01327041,73.73865313,57.15458709,56.12326384,51.12179743,92.27271021,58.61730896,54.33105368,57.28188393,55.2657758,56.66430253,56.44785751,59.16695509,146.3973798,66.40035964,61.24367329,56.25016007,56.2569851,61.76428327,56.13767939,52.88323547,69.68036899,62.89819587,93.22581225,64.01632402,58.59126085,61.00881947,56.60175677,62.87518012,70.82053237,53.72301983,67.91760677,64.42879169,92.83930897,58.28995752,61.35896933,52.10642075,62.24569871,82.01902576,56.76717469,48.40787083,56.2112789,67.16288096,75.71804152,71.02442452,63.08686677,60.77460911,79.85303386,58.52532862,71.8415745,54.79364635,49.09554766,51.86207799,62.85012891,57.75707667,60.28088932,72.493241,51.53439538,54.86345877,50.89118991,62.95545167,56.03418381,58.74699229,90.16453433,57.51621364,71.04627062,58.7991504,50.40742937,49.10102803,56.88100139,62.46841146,53.82906944,62.8236297
0.951287933,1.077873759,0.80655117,0.900466347,0.747955117,0.8305153,0.835646023,0.639403595,0.729831488,0.650884986,0.944055703,0.895210888,0.730265428,0.9089542,0.788555419,0.78052172,0.855561845,0.910824511,1.044143752,0.811939983,0.907372026,0.956182492,0.660275705,0.815499707,0.931508015,0.701251324,0.880396253,0.832931334,0.670193624,0.863694922,0.825217275,0.706457334,0.745219272,0.987282448,0.872723282,0.791598082,0.65070161,0.736208022,0.637064373,0.651521312,0.640705014,0.741101071,0.706487624,0.80198742,0.708427846,0.613630456,0.801020757,0.847483734,0.653980153,0.804599639,0.747420788,0.675231407,0.691790277,0.734221493,0.735675003,0.696793525,0.712250933,0.761716502,0.898455864,0.652510288,0.836105544,0.658832481,0.936258255,0.971855995,0.9284443,0.709942715,0.73594621,0.78004839,0.770527428,0.906483402,0.914022878,0.77791448,0.897764266,0.740818291,0.978810667,0.725792464,0.750139824,0.861467505,0.899762895,0.816641354,0.710532234,0.701784032,0.737835051,0.883475185,0.82292052,0.726690981,0.878106779,0.711591657,0.778799452,0.611893745,0.694030715,0.84388277,0.891948686,0.97904469,0.7973869,0.839406808,0.819247637,0.749447997,0.75620668,0.742949498,0.874326205,1.097833256,1.135950557,0.960207836,0.956033369,0.931770155,0.979967605,0.888762101,0.73103338,0.995264419,0.822895384,1.014298613,0.948760341,0.805996172,0.722769856,0.74283314,0.705025982,0.999653338,0.811356118,0.773387056,0.729278657,0.720156115,0.756733043,0.751144236,0.830002711,0.8238439,0.937096466,0.835575454,0.858066462,0.763639382,1.026781156,0.949037357,0.910803435,0.746860445,0.66318586,0.875777074,0.812208172,0.625127452,0.762229819,0.851344748,0.664107678,0.705829969,0.686641102,0.653273741,0.911017305,0.727590179,0.750451469,0.856669886,0.939514396,0.808780483,1.060313183,0.759099092,1.069789551,0.789785494,0.656366237,0.67522378,0.798054011,0.774046527,0.818260787,0.661213161,0.740672704,0.757299911,0.827842447,1.054253162,0.847205949,0.819910301,0.825471375,0.730418278,0.988520415,1.029260937,0.777074796,0.838103743,1.093663533,1.018852575,1.01958422,0.844718684,0.818500922,0.944020159,0.756414137,0.804880591,55.16526743,86.70468732,70.18233009,60.26436363,56.36678887,51.1124962,69.4660665,53.41700157,51.19413058,54.49238089,67.20760784,89.14203412,53.86472345,56.16493666,51.73102549,50.72306025,61.13415599,73.71033124,79.09854851,70.78979464,64.7845344,65.6827899,79.41013662,115.1581603,49.10839307,82.37002325,73.00040964,65.72868588,75.28884219,46.85751762,57.90555705,80.61102968,68.31161085,54.28060082,53.10035842,64.27847478,45.38545966,49.74423225,47.04342846,63.50394155,71.7439627,84.54803538,47.79456027,47.42847539,50.37539057,56.99507675,53.15276698,65.51460092,77.02391764,62.56083837,53.01786945,61.69232489,53.27016411,51.82276677,53.77330851,58.33611984,52.08044316,63.30955112,54.16242022,59.55231772,49.48603977,49.10422881,73.92561438,61.70826482,52.4287623,51.76623058,53.6458966,74.98014843,53.84049782,49.59399872,54.14581091,59.37403206,58.36714003,73.80461017,52.46898598,56.52960071,61.56678186,48.10324657,60.19895435,51.23707002,74.65858904,47.65614447,50.26312032,77.2466226,58.4655739,50.30931741,62.07442395,76.98741296,59.56300616,85.45336986,50.29683301,55.08841521,92.74628434,52.93903208,61.0337399,51.55877705,68.72348989,64.16084005,57.95149145,52.60418587,49.82206759,78.28119772,63.97397426,55.61592433,75.53966381,71.33084754,53.04451412,57.61208835,57.60182702,73.13647228,76.34091534,80.03891753,64.26030515,103.5539995,61.44539192,61.88017883,72.49511248,70.3794209,47.64137714,51.42039346,48.78788934,61.14066458,47.93408615,60.45555143,78.76101755,55.21106056,73.59521339,77.56580336,75.60829418,112.6846835,71.00968582,91.86933546,58.96403604,84.46319841,54.69971006,48.83069271,45.06566775,60.92382438,55.98580611,64.03259435,58.19785686,57.16723784,60.81482562,69.31083107,68.31291185,49.41319709,55.79838876,77.72714629,87.83516505,60.91730795,85.75440917,73.3051367,65.90048232,103.5355685,97.81525448,48.35594866,48.51786655,55.21801321,45.36529689,65.31497343,55.35548,51.40618778,53.96699255,52.57377618,61.07152713,49.67867524,73.49663215,68.66984286,49.0146208,59.40914086,68.02342337,55.09086528,58.2154684,62.71604233,54.73400389,60.59477135,63.3903385,61.6652421,50.67214571,83.03786247
0.569147364,0.539375324,0.569501623,0.812972243,0.633679397,0.621055692,0.432276962,0.594479305,0.665571225,0.729368249,0.522252878,0.701290548,0.575088138,0.788865264,0.770725121,0.654027997,0.680861805,0.497244265,0.52813605,0.537947605,0.650170171,0.516476082,0.543720622,0.623476155,0.480099538,0.582041376,0.53586632,0.45893989,0.590003183,0.560579081,0.499862384,0.554909558,0.450114983,0.427268205,0.459895384,0.619936701,0.574129284,0.477828503,0.651557257,0.587485112,0.612068994,0.618494258,0.64628895,0.486726022,0.646033952,0.4725163,0.720833048,0.658482746,0.535400583,0.687502431,0.500440754,0.57372825,0.5759633,0.694296878,0.590677154,0.666503866,0.696171165,0.794199672,0.451384417,0.620953749,0.737589421,0.705643573,0.647468412,0.76555606,0.582620197,0.563842619,0.646860877,0.700702987,0.739810916,0.733496967,0.661766621,0.580374786,0.661480875,0.582370025,0.851147174,0.795837753,0.497289856,0.606896136,0.493015577,0.444963404,0.580669596,0.600519421,0.515747171,0.502732819,0.564882639,0.527891715,0.580419113,0.531467112,0.478580954,0.527344563,0.485703382,0.50319755,0.491223907,0.525585914,0.627046026,0.51000235,0.611791979,0.466571039,0.432225106,0.536269843,0.563870197,0.501812369,0.471331419,0.457487791,0.538406779,0.441831095,0.469836511,0.429632036,0.51035219,0.619195135,0.485404713,0.410364951,0.590884334,0.498882553,0.62676995,0.649106794,0.623797181,0.539501424,0.549951168,0.624184946,0.578686996,0.784391339,0.58243277,0.540563236,0.699585966,0.770685048,0.673430091,0.585090871,0.422435103,0.432943936,0.535021506,0.530363056,0.60629859,0.66158506,0.60799296,0.554235815,0.852792152,0.639244918,0.599489045,0.513368295,0.527846924,0.490327919,0.741721269,0.530354249,0.582996349,0.488636193,0.46582796,0.634943433,0.668496005,0.553872855,0.559212961,0.63076067,0.529432565,0.719189797,0.649938426,0.461418773,0.61393992,0.508865695,0.570733817,0.48710182,0.495842093,0.620250462,0.547606213,0.81934063,0.522969338,0.555739567,0.645998988,0.568317978,0.467716893,0.522098051,0.426341838,0.428668887,0.592016445,0.450855882,0.514985272,0.509420236,0.482594252,0.480595023,0.551753204,0.511473172,53.05487812,51.78937846,53.81316007,72.2427156,53.81404826,67.16979207,55.30622313,54.27766673,55.37134883,61.68645921,53.84070516,58.26704688,54.7645619,84.26469052,80.5570811,104.8763717,94.19666333,62.84226182,59.49883876,60.3419795,77.35495352,54.98645929,54.48847419,54.04586638,57.73507067,55.39224048,55.07549745,52.87484715,55.70411371,55.85734016,55.65206299,56.24345346,60.01363975,65.77492037,70.28471534,64.55033047,58.62719751,54.58879676,64.47676017,62.53497757,63.6282257,65.05214577,56.86768128,53.9858128,64.05302903,65.39432876,62.88115013,57.22137851,56.16586922,51.96862988,56.55063269,54.16975248,55.02439043,75.10451173,62.98309304,56.84264467,57.84567998,60.29171726,54.1877432,57.0031854,76.67292685,56.21397752,65.027861,70.0004497,55.3988023,87.23604877,64.51240407,74.11077012,92.70801962,59.5138592,65.55659313,52.9676937,71.8245282,117.9941653,67.94954646,55.13151657,49.08347639,53.45349989,53.07779795,51.70108607,55.7011724,52.7809004,53.2312876,55.53789602,51.9104922,51.53451401,63.63163658,65.99314469,52.18370851,56.03670237,53.9172391,55.65067963,68.73775725,53.13048195,52.80112496,56.25206316,57.3517313,52.27897687,54.1460261,55.71271123,60.6868633,56.26598321,50.85450657,52.47468002,53.8504234,51.22950261,51.21251359,49.95661662,49.00819665,49.76188206,50.32127515,50.14866394,52.42850645,50.50190717,62.00764814,64.64378542,58.90535515,64.26615442,54.24561037,53.9220074,50.54432139,68.49663156,86.43657725,53.44949657,81.46614597,77.6225809,53.81805923,69.76045179,59.00752076,51.61816756,57.26743064,53.69335515,53.71784956,52.95492155,52.19728118,50.8909346,68.03640128,65.6095656,54.60865913,53.33778952,55.72795362,52.93461978,56.26780537,51.27504189,53.84825673,66.10469118,52.6106803,51.0687465,60.84402254,58.93957905,53.07465283,75.66996483,71.77436535,56.39535783,72.18405355,59.19907621,55.95642164,59.3470224,75.87821233,68.7458385,69.57095833,89.29060794,84.15756852,75.7110346,67.77460617,65.86823396,57.53492239,59.6964077,55.12239495,55.38909677,53.7308191,68.26220297,73.14349988,62.85120474,55.44092883,54.07659812,69.32993465,64.27756379,54.909117,54.62266289
0.8958421,0.957545072,0.988868779,0.832400688,0.933522344,0.896544489,1.030757763,0.983339525,0.954241715,0.950437158,1.018182711,0.910936358,0.842901016,0.882539238,0.923218449,0.847236406,0.918191244,0.994706923,0.884695371,0.89232033,0.977456491,0.980258906,0.869653733,0.858725321,1.054116278,0.99921294,0.901455581,0.947360023,0.990146318,0.888456197,0.953363772,0.976352892,0.926991997,0.921784543,1.016974527,1.018524033,1.073397746,0.868350416,0.846495326,0.793866101,0.948092722,0.904533248,0.963657112,0.957865234,0.947512883,0.972869572,0.903431131,0.9946936,0.969776302,0.968361373,0.966608189,0.926754853,0.804410686,1.067088562,0.88590104,0.964885921,0.986793643,0.966828584,0.998984456,0.986766042,0.947355867,1.015222935,1.024661598,1.117100328,0.975742537,0.909943068,0.982716065,0.869928557,0.903269183,0.981612887,0.994068341,0.924859481,0.998880563,0.826474396,0.917512917,0.979602634,1.079438081,0.991016073,1.062477156,1.007704001,0.889325387,0.983363086,1.059319501,0.880046942,1.059149161,1.037716073,1.094838137,0.95953907,0.975256297,1.036625516,1.103748516,1.017086528,0.986932687,0.826086529,1.100086749,1.019552488,0.965063137,0.971282456,0.926731196,0.975472038,0.848326733,0.931363419,0.88806297,1.00378422,1.021900804,0.993782099,0.924636257,0.924787969,0.946343847,0.870535385,0.834973353,1.031065845,1.076822289,0.839038607,0.86106597,0.956724354,0.830316504,0.876163394,0.976312538,0.993863572,1.045343698,0.843420109,1.019199868,0.974443077,0.942396819,0.979933221,0.971203014,1.017339115,0.88887904,0.918486693,0.977939822,0.956230999,1.040022645,0.971883116,0.951899203,1.004388909,0.949654122,0.936863853,1.107877495,0.959852018,0.879452437,0.832005897,0.817229736,1.039897781,1.05331443,0.995934382,0.979694798,1.000164066,0.894667516,0.944243292,0.888058487,0.849193271,0.918232497,1.038139216,1.01920855,1.008026785,0.969508652,0.952516327,0.884540961,0.871781827,0.966399931,0.819437246,0.774282984,0.776740389,0.866810998,0.845804008,0.822975805,0.956359331,0.874592783,0.872991614,0.983613186,0.963069774,1.022682808,0.953381626,0.891174327,0.860240591,0.937122812,0.827590395,0.936444197,0.902058964,74.4554688,64.63233914,64.81132476,63.9204664,64.01204445,58.14057498,67.4628944,69.80894549,69.51706277,63.38944637,69.90099682,67.54723625,57.11361321,56.90620597,68.29095299,69.25123817,55.20418695,49.35311357,58.23838052,60.33055824,60.44295301,70.92859927,65.70493372,56.78902489,65.42870161,71.14125027,72.11408988,58.99724148,67.7959585,57.16248524,67.63130454,68.08587221,51.5417066,62.12811618,68.07043451,69.42628271,77.06585457,57.09946263,59.92164662,67.75716861,73.43183228,72.76535512,68.73494027,65.67423053,57.4545581,75.71795259,63.68564852,64.12853262,59.88302156,59.83068143,72.25889231,57.7879332,64.62938118,56.71010256,75.95320574,67.56423429,75.0043839,67.22221149,75.30967228,64.33120809,61.31986512,69.09628232,71.77710297,60.04728073,86.14269618,67.14549817,71.63481191,58.28114503,66.07666656,63.20669897,68.48445288,81.75915366,62.9889051,53.70671265,56.74452071,53.95307564,71.03345678,68.18331064,74.14382601,69.08855174,61.61502264,57.99790442,62.15102026,55.64781897,52.47379805,57.00923045,57.40268951,60.71324274,80.5573681,55.10031638,54.1650091,58.57790564,54.32768699,69.08458548,68.16061688,67.44601312,68.32102659,69.17153459,57.99181139,69.34540873,54.90334272,60.70912471,53.23863773,59.36568156,61.68526439,63.05831924,50.2191317,56.87927037,55.10801703,60.99006856,61.57597574,58.51966333,59.494274,59.0868151,58.36931007,72.16254415,53.66736077,67.18722918,52.59472888,52.18427834,55.69957798,53.16599071,60.98734239,64.46870378,46.45094387,78.25686044,52.88280253,51.63560926,53.83625601,68.13054711,64.32671909,67.71659055,56.10784253,72.32095661,53.21193269,69.86498018,72.09853954,69.95971191,53.73757201,64.53830155,73.5630039,74.21545716,74.69467042,99.04562918,62.03224242,72.59751954,75.70902216,69.60043429,60.46646209,64.36732463,67.77581611,82.10207809,82.859751,64.3839865,59.50312517,58.69700853,68.72087273,81.84956669,58.75373403,58.51987652,65.84535789,54.93254351,54.81632849,50.74068137,51.51529503,59.10065766,66.24077426,58.61769469,60.08582387,54.08839359,55.73159104,60.26490882,77.41251891,62.64553479,61.44144577,121.1516621,71.61800423,50.82572878,52.01632629,67.66721112
0.855960299,0.928370082,0.680253583,0.761957454,1.085703539,0.863041514,1.007235945,0.54966743,0.59735137,1.129692207,0.689559122,0.767316146,0.831739401,0.536265211,0.854529765,0.532834696,0.724157566,1.32663306,0.7883305,1.164243487,0.938589806,0.915228125,1.10265786,0.925367254,1.081444485,1.132049268,1.040325174,0.735654208,0.849340907,0.924624847,1.04772642,1.10930444,1.063383952,0.651577135,1.183893803,1.013385725,0.881408523,0.974105691,1.014069264,1.03417429,1.058359978,1.068217792,0.928682627,0.905517102,0.800583893,0.428703566,0.845260959,0.754697782,0.44271788,0.599137794,0.82294255,0.842628153,1.047924633,1.050895292,0.753339592,0.842141172,0.831150383,0.896242773,1.088096018,1.084334071,0.940801573,1.010710613,1.074766901,0.795562186,0.966278054,1.010433705,1.041220359,0.731385803,0.72238445,0.701646987,0.901388593,1.030225787,1.118420657,1.148360597,0.99839114,0.711655909,1.014921221,0.915575872,0.948903764,0.727301263,0.960605103,0.464721037,0.981487591,0.950142859,0.829122836,1.060974922,1.011242005,1.039268156,1.046341381,0.99377264,1.054450793,1.046159766,0.990187895,1.082811544,0.962410542,0.879990298,0.986328219,0.917430611,0.757752893,0.87158826,1.183414952,1.032801498,1.03245623,0.89705665,0.81179921,1.059383561,0.933751131,1.000294228,1.085403912,0.959429635,1.000677831,0.890266252,0.898396013,1.06560709,1.17180813,0.989224326,0.979695171,0.951416622,0.966657628,0.852667714,0.971660151,0.841316419,0.952799934,1.139804966,1.345899729,0.598698996,0.178475228,0.773205628,1.055057971,0.96024657,1.064941806,1.062655518,0.919815112,0.370862792,0.81274968,0.981471517,0.982193567,1.013534173,1.145965707,0.976027637,0.944583737,1.054192357,1.047634807,0.98764877,0.644938469,0.83862644,1.048963297,0.971227628,0.912097854,1.009332823,1.175629798,0.93942646,0.986682874,0.921604102,0.600875088,1.150958532,0.940985156,0.254116613,0.97291303,0.726147891,0.979809549,0.707266663,0.940505426,1.099347853,0.927468242,1.039112468,0.848624181,0.90817607,0.978469135,1.008599774,0.867102432,1.088694216,1.012108111,0.88906969,1.151536072,0.958226686,0.861468187,0.906191234,1.032504223,0.798133946,100.7975783,90.11483859,101.4502389,103.0490267,106.070463,111.3991266,127.348112,117.1957233,116.3878436,115.7570406,119.4813147,126.7635911,117.9135109,112.9552252,96.16676038,121.7071312,125.1932318,70.4086339,103.805945,76.56766955,113.9397126,124.6841462,105.2420542,95.11206144,94.78326537,95.32144392,61.75857083,111.7409024,110.9885038,100.6703657,114.7271837,112.8971226,74.70005445,99.65759455,89.41189435,110.941806,109.725844,120.7462154,116.9579699,73.73725665,75.27333897,91.70701415,122.6265473,131.4436769,112.0872624,122.8225435,123.0119102,122.399584,135.6979956,114.7220309,108.2629495,102.5560515,98.28878149,64.85286959,91.50779704,102.9775284,116.8969132,124.5073058,98.05286253,70.55225519,82.21171566,91.34361351,106.4304177,115.3272215,100.0271413,112.3498964,87.04902602,77.69612855,109.7144436,106.9552902,101.0450577,112.3046856,87.91001532,73.06100557,97.03643228,107.9332284,102.8424891,106.0033818,115.1461894,120.5510425,120.7415032,152.0943594,127.0551757,120.186055,131.5359246,111.5610534,109.5935911,80.35455557,80.31893907,115.3992493,92.1199899,111.3545328,115.8113789,82.70676602,120.5809075,111.5519059,104.612404,107.0356298,146.4714033,108.5870195,93.23123471,62.01614299,137.9644571,116.3449118,118.3652911,92.62784503,105.0436033,79.39448443,77.36051239,67.90820218,112.2500426,110.3417293,97.92688927,102.5392629,81.50075074,88.98097265,95.6264059,105.6816594,101.4217842,107.9556758,128.4929117,110.3673277,79.75678502,63.88673339,88.08152104,111.8020491,127.7281717,111.6582179,101.7523264,95.93785082,114.4909993,115.6333288,107.785938,132.9167517,100.089001,93.84170536,75.29253409,100.2538776,71.74069315,104.7903889,177.5772579,95.4743247,84.51706052,65.61442002,121.6140463,98.63749436,111.2011297,121.2606533,126.0504843,121.9114364,121.2968731,109.303856,89.14877312,125.0405682,133.2688716,133.967327,132.1037584,139.7025264,121.1410908,111.9144827,116.0096233,126.2896063,118.8445928,138.4311508,126.861952,100.0046261,90.47366473,112.161799,110.8854976,110.140199,92.47296309,102.0741784,65.60633026,110.4105206,103.9404498,95.69760745,119.1287812,128.0285544,71.15283922,79.59052302
0.752446628,0.893838547,0.839340972,0.773195653,0.935750755,0.886999458,0.667225128,0.760908303,0.771105627,0.820532667,0.699315379,0.766199576,0.97477622,0.914342777,0.766271815,0.649467491,0.762225068,0.836396032,0.61020683,0.884575929,0.54062181,0.751403955,0.801428539,0.724164794,0.70509997,0.741545845,0.775408539,0.698981059,0.635122356,0.638449699,0.572476485,0.682552202,0.78018985,0.723396119,0.723578778,0.701026092,0.673022094,0.749346353,0.601623026,0.733469251,0.679852304,0.656360198,0.69549424,0.772939799,0.644867739,0.712388843,0.690692342,0.775185402,0.6910371,0.917161121,0.542290117,0.93037511,0.837209709,0.995284652,1.012869786,0.995591207,0.801499551,0.84955978,0.806907976,0.821526772,0.666697035,0.909878347,0.905752274,0.837664667,0.563721511,0.784606865,0.957627377,0.98260218,0.854470182,0.999565782,0.761834783,0.845493344,0.55570083,0.918186267,0.799904508,0.758992399,0.599481132,0.864949499,0.787546461,0.789727815,0.843632923,0.922951193,0.810552597,0.898028377,0.986825391,1.066849583,0.99058375,0.864772543,0.778911712,0.766356384,0.734019144,0.866710898,0.813229494,0.609488147,0.747421965,0.948004146,0.712379691,0.744976171,0.956049869,1.008725598,0.855524706,0.813361459,0.706671781,0.657983268,0.821798621,0.723617133,0.683526464,0.706174997,0.739412012,0.918331669,0.792768243,0.997577204,0.885661351,0.63549188,0.845640859,0.787092436,0.701807743,0.771689995,0.959815495,0.417002523,0.799235161,0.893487193,0.310327975,0.934956643,1.048068639,0.861804498,0.952187772,0.773776385,0.795595182,0.760962832,0.886257403,0.881815415,0.871509813,0.807038494,0.991343302,0.404659911,0.796314078,0.845132097,0.346144012,0.488997937,0.868460753,0.74990734,1.070652508,0.909845558,1.047571742,1.12903196,1.088892978,1.001153946,0.939942473,0.597848891,1.054347172,0.764601956,0.683021933,1.110985766,0.808966125,0.888976819,0.769756362,0.90866429,0.625754977,0.825776611,0.807892528,0.713375204,0.777347142,0.838951547,0.750465008,0.791417991,0.653771126,0.660275388,0.843644532,0.726621989,0.670601556,0.614142176,0.526638732,0.317631427,0.713016813,0.663159173,1.035246512,0.539182808,0.685913471,0.746286878,62.24634213,62.73709094,66.27432728,89.16019644,81.96012364,63.30373132,60.62605473,66.477068,58.21675064,88.75027097,90.53975234,52.22407998,76.61201772,115.0892397,87.72093062,74.14172326,56.95871485,57.62506003,113.2478779,71.72041684,102.7078671,57.21518137,66.70027218,57.91712499,68.22018681,57.69962214,110.6122735,67.62977848,55.30005661,50.70024602,51.22039706,53.76455967,55.60450481,65.49415822,55.36206989,53.06661306,63.58208639,49.649455,55.18718343,56.64129607,80.46414427,90.20229885,81.92606328,106.2296551,119.9842056,119.5201128,85.95376879,83.02183566,118.7055743,109.9904544,117.7009816,86.12775308,91.18743188,68.26629545,100.1213979,78.67412207,96.92424278,76.95649212,60.39933304,67.90993104,102.7888076,69.96644892,70.05081237,61.31834935,91.04550954,85.30419218,99.25843425,91.24017054,106.250521,96.3043166,91.50997677,89.29789699,110.7569207,63.32907501,62.74956535,59.28934434,48.74536478,62.95351112,53.20560318,51.62815323,47.48420209,49.80013936,56.43159163,61.38779379,66.66739727,60.7994251,52.61472065,50.46730142,46.27519822,71.32433861,65.25111269,60.58491401,60.08451465,106.3881814,103.7369573,101.3369305,122.7589342,84.09608744,95.87105586,109.1182061,89.78798616,108.8163305,97.60864574,84.26103855,111.2889697,80.94308183,109.7170231,81.50375693,103.8672055,98.03786161,116.0233904,92.53118237,88.83355352,110.1763012,76.13979414,93.33581704,110.476715,118.2664203,75.18677087,135.8807318,117.567427,60.66329227,122.0492956,102.3371506,96.11110631,137.3142862,120.8631897,68.73261849,97.63801076,87.10414352,57.29128092,60.92746764,49.39983012,69.43469828,80.30415505,121.1288782,129.4649609,61.29989267,119.5631659,125.4009595,54.36703612,66.66297051,74.97729811,93.9720665,80.5843926,61.85624432,64.1182881,55.37489602,73.03818678,107.8241248,84.73387367,99.56530737,116.8732729,81.7290471,102.4114265,103.4550399,66.30110335,77.61457598,126.2114005,120.6345552,76.67900686,62.63285954,55.43115392,56.52013866,63.31609352,79.28050806,56.95756735,62.31707706,72.22528466,107.945565,128.3506911,108.5109691,110.1359971,124.4213841,102.4030339,103.956802,99.00872032,117.3316076,66.77457874,126.0200603
0.80813006,0.806162117,0.614216675,0.799504245,0.757558253,0.721093302,0.737229993,0.862811792,0.867122678,0.737279376,0.703018884,0.824577027,0.872681054,0.801100626,0.787130559,0.819500943,0.397682255,0.725766231,0.786244253,0.504158782,0.731246113,0.765810566,0.750588972,0.808054548,0.909415433,0.779202726,0.859217917,0.833438856,0.462216781,0.978791842,0.480202083,0.596697604,0.781382172,0.884317467,0.861704194,0.862088598,0.892768799,0.966039268,0.839344356,0.809255086,0.918194566,0.889658222,0.816045785,0.79976,0.820952029,0.960993295,0.862870928,0.873181475,0.725141607,0.386439447,0.556990959,0.860659751,0.712917753,0.974315281,0.17755813,0.747279058,0.444660935,0.678948619,0.879940821,0.775003347,0.809488556,0.32184343,0.685593571,0.668885144,0.771563257,0.492307094,0.78648891,0.746443686,0.628703059,0.618430988,0.725139297,0.702800488,0.7433304,0.618356433,0.680860556,0.788534235,0.603824638,0.646852338,0.610828329,0.724639303,0.528042719,0.586547115,0.481633747,0.865299673,0.610749733,0.511194686,0.589965031,0.612662536,0.698880362,0.443593728,0.639469847,0.705045268,0.634787061,0.162294796,0.170188897,0.155533875,0.25670871,0.219402496,0.359717144,0.520242437,0.576349464,0.681638332,1.012587118,0.649205741,0.320748191,0.419692838,0.826591116,0.527666841,0.752961243,0.572720141,0.571195156,0.832550844,0.60741166,0.801842703,0.738614012,0.53838593,0.939829893,0.769128421,0.842104147,0.93338907,0.855707679,0.732683564,0.879670531,0.752971209,0.770706327,0.731335625,0.782551387,0.805651294,0.812190799,0.512551916,0.726987689,0.740510306,0.664328472,0.701539993,0.81483475,0.817373158,0.851835035,0.817254157,0.785569788,0.901033917,0.866384998,0.852130032,0.731110663,0.76946696,0.85774704,0.806214051,0.694672705,0.581165134,0.798394102,0.892380072,0.902570338,0.887313323,0.855340468,0.88757551,0.759076111,0.918652043,0.803343935,0.227174843,0.368316711,0.75632968,0.918496815,0.817234694,0.857486639,0.856273551,0.754768427,0.817626586,0.665866146,0.863125249,0.819156969,0.935702721,0.902322682,0.783124768,0.835735917,0.855940484,0.894534146,0.805151532,0.736104597,0.950936095,0.796171713,0.97688602,64.31936799,89.64872403,114.8540472,88.95037998,66.94376515,89.79692456,116.4183756,104.9443533,90.93693976,75.79822811,66.59413499,70.50906022,61.23712749,106.8030395,88.93838925,63.06055945,130.5193292,86.02678747,76.20130344,114.8806303,103.8319984,84.88509424,79.98265299,98.82939829,88.31212146,89.29643958,110.8980075,90.93447777,104.3455205,73.71485714,145.629293,105.5202681,83.37126255,101.5369113,107.2197715,128.6311658,136.0947268,93.43333828,112.3937975,94.16964139,104.8918659,66.62551476,69.59544268,67.45843975,54.20379903,71.26784403,60.85240643,89.54934694,95.92518836,121.2696681,114.6112033,80.40215614,93.36254645,67.984681,131.2146881,146.7486722,135.0159323,115.0759444,117.7970551,115.9753565,123.4183884,129.3364529,99.79535296,59.45119398,93.17060982,101.8341876,88.96116505,88.29434313,101.5076124,93.44775436,93.79221738,117.5143286,74.22094996,52.48844666,68.70611138,109.6057046,109.180349,111.2264154,90.1807454,98.56783859,74.07699587,105.4529902,90.4498953,81.84406853,91.58241781,120.1119416,162.7328486,71.43168829,74.52415159,131.518131,103.1562633,85.9898418,108.2581518,125.3693516,129.241087,128.4842227,114.8828483,130.7434088,125.1593788,128.8830618,113.9474917,98.14898015,83.65567278,121.9674973,126.158989,124.946664,98.52921753,130.9136067,101.1399717,112.7090422,126.9475605,97.23135151,112.0545259,97.93878,102.8483588,126.5161131,93.60494357,92.71512564,85.38154397,77.96824508,56.6147594,116.1183107,116.5470528,127.2839803,107.7147483,101.5338207,92.33421414,60.14613061,98.88786541,122.2243395,95.1925367,94.83506055,116.7625161,104.5698821,123.9471603,96.52940004,82.76210681,82.86685022,74.99307633,99.24434192,100.906742,82.29133971,81.67072225,76.73795111,79.80597757,137.0352658,114.0617724,100.2489253,115.3078159,101.4187577,113.8351039,103.2942755,91.86223955,106.1393568,114.1560759,76.60330556,61.19230788,104.5885077,130.8354387,95.13914969,62.199067,96.28040821,99.68891563,64.09728044,83.47322684,96.72081982,119.1821134,94.25005544,58.02989756,105.8210974,65.84842888,68.30858916,91.74354276,58.33103498,66.10534408,97.69348415,101.3235018,62.37758501,61.39051782,87.50237855
0.420961979,0.49163333,0.465788905,0.502866208,0.463476111,0.654293217,0.431387454,0.440679921,0.384781989,0.451685028,0.415394402,0.462576826,0.387115553,0.504369544,0.439981444,0.52380254,0.483287337,0.396559357,0.328904871,0.322302687,0.431299847,0.57852126,0.478602279,0.583318253,0.437846956,0.353467637,0.524745571,0.486441424,0.494739274,0.783088613,0.750821152,0.900282594,0.971910034,0.81889375,0.532358264,0.594417095,0.383035773,0.431830872,0.577168841,0.581040392,0.607425097,0.404917992,0.767472328,0.558609596,0.675249003,0.778898472,0.918516477,0.714989792,0.55180115,0.760279172,0.51327842,0.560765398,0.520192835,0.440872653,0.610999728,0.802574084,0.609350782,0.791336826,0.766930527,0.611719142,0.664958802,0.49760966,0.332000347,0.49799746,0.55405297,0.351870315,0.480695173,0.610702845,0.957478103,0.754397722,0.760455925,0.76178578,0.677694271,0.787330529,0.741455124,0.631058874,0.62132587,0.687660516,0.63740685,0.57232639,0.631786341,0.631411599,0.656627857,0.71490584,0.67147827,0.703179471,0.468339658,0.626014762,0.478852163,0.487081079,0.38960044,0.546828002,0.412059355,0.409282998,0.37154868,0.526739909,0.411856552,0.367469534,0.409062289,0.419977631,0.582269859,0.460770404,0.359685905,0.529449273,0.402534761,0.307875963,0.392837076,0.525239469,0.415477174,0.350260319,0.330273344,0.381067847,0.309359337,0.430032126,0.347061416,0.318998708,0.478341961,0.441103912,0.343924052,0.432997487,0.472910002,0.345197942,0.526322871,0.38419513,0.387305447,0.401842475,0.440018786,0.367712877,0.531271222,0.469309547,0.361310546,0.476539159,0.3464507,0.38569118,0.385002622,0.399882683,0.389934978,0.439306145,0.466430074,0.4339268,0.387079462,0.381593822,0.416071085,0.492356976,0.48117693,0.359325567,0.429074909,0.446903929,0.50464983,0.465020957,0.355764053,0.40565455,0.351750973,0.338332569,0.438969892,0.381674898,0.424930142,0.426409765,0.393623551,0.358713652,0.356780935,0.527461392,0.497391626,0.516497247,0.406090393,0.472517532,0.580405464,0.442919389,0.440077071,0.442086349,0.505535944,0.411488266,0.49954713,0.465713751,0.395326002,0.428152929,0.34875551,0.387007947,0.423580858,0.514973292,67.41293806,83.52859626,69.59861088,63.51798003,53.75602727,89.5177422,93.75632114,76.52085552,76.86806862,80.00036967,80.3867497,92.53740497,81.34254411,77.19377125,82.05682367,83.55384761,88.15234723,75.88163927,60.46691688,61.04495676,58.00363869,79.69639607,71.60681874,72.57552461,74.24191319,81.62884342,95.328679,90.73143432,101.3701001,80.57152998,108.2134309,73.636233,69.77911028,63.9509343,75.13108837,71.29215495,97.62476842,86.43222916,73.19240304,86.24046135,72.39458533,101.3919089,78.27219896,105.5850257,107.1362759,59.88729605,70.57086225,67.98639011,65.23483446,80.23473618,97.67747815,100.9493038,93.59486105,77.79713539,88.93263386,75.22306057,86.37652318,89.36964956,92.49389304,90.28523744,93.72761122,86.81710247,92.86472854,95.27111693,85.51326494,62.51231276,76.94459856,87.90148568,83.7819112,124.1403961,93.76498386,109.4478855,97.39372343,78.75636141,81.01139665,101.793014,93.10182123,86.6462883,84.92037387,78.33618134,105.1301714,103.1403081,93.27238414,82.53146723,99.80713242,77.88588369,58.53693533,103.205878,101.8028494,78.11895211,62.32713447,66.82019828,66.34046397,75.93649433,83.05375181,85.69516155,80.87691617,76.88541039,71.84044873,65.85049531,87.28162913,79.7568876,71.48438726,65.16621594,86.81602375,85.11894736,104.2769375,118.8397513,81.89635073,89.85673602,77.2853952,80.27292443,62.10138991,78.0449568,80.22242128,73.22684521,76.17526242,83.94005294,74.59802328,62.48452755,79.92072571,74.86982334,81.53231708,77.59461674,69.41811784,77.09824204,74.16298605,69.03779191,85.092344,92.57105577,68.8872327,77.39161312,58.16720815,95.65339536,102.5559613,74.26988947,73.97209622,91.58284391,98.42450864,74.48141584,71.04728921,79.40928415,85.6457316,80.25938694,73.95169483,75.42601033,75.30530236,79.64993289,95.09462999,107.0001214,85.92564428,76.19019884,73.55490822,89.36361439,94.2321457,73.31571128,53.16370872,58.67321637,69.11343786,88.56570209,75.06458735,91.36544689,69.92443067,85.94837534,73.59960599,79.39095587,101.7934516,75.8188829,68.16299413,81.22566645,76.60703179,74.35065533,73.92764548,74.35384621,77.7121628,72.25114367,66.28660115,86.55219363,76.1107959,83.30235668
0.526781551,0.476922068,0.616618694,0.679341244,0.494612204,0.472857041,0.553306014,0.436971316,0.503666193,0.518263408,0.50675337,0.495216951,0.490498023,0.491118344,0.575520984,0.463189021,0.534928716,0.586788352,0.536317066,0.487042655,0.499956194,0.615051493,0.587791991,0.539605659,0.48267807,0.542553728,0.601770419,0.559023327,0.578806161,0.575503187,0.451663314,0.460960521,0.582230829,0.499460901,0.744153774,0.87485667,0.616387054,0.610468889,0.800542519,0.623732585,0.985929905,0.613509067,0.572377099,0.528355987,0.590926826,0.5230094,0.750195844,0.669087146,0.522961687,0.617970948,0.473480269,0.459714974,0.782221812,0.59037209,0.631138408,0.59137181,0.468921324,0.575681446,0.647524734,0.793137213,0.749176771,0.834330993,0.603352389,0.71239854,0.609436488,0.675890977,0.544143944,0.570204075,0.524289781,0.685280758,0.658512837,0.685580561,0.527739141,0.679838385,0.496360606,0.771617947,0.821043679,0.590270016,0.622441309,0.630503047,0.614391464,0.558482348,0.524591287,0.536254752,0.582713407,0.601872716,0.508557557,0.624229083,0.642532907,0.620618718,0.553487633,0.614980254,0.488032839,0.595347631,0.604110156,0.623317127,0.602131424,0.500384536,0.712207424,0.591239534,0.554243273,0.610570178,0.582282568,0.702230178,0.52578241,0.521188695,0.504315457,0.574851016,0.551573519,0.737302933,0.25536152,0.486371096,0.59180532,0.371175245,0.188912477,0.324508272,0.597352302,0.747025564,0.727227753,0.254733308,0.617897563,0.456506371,0.849554057,0.654635925,0.847709622,0.668834714,0.505676547,0.708834474,0.655207491,0.197523461,0.616520274,0.850120694,0.743900386,0.688831543,0.591950727,0.811094041,0.719465296,0.711832963,0.693769508,0.813909077,0.512152569,0.655085247,0.685682424,0.690909402,0.762573116,0.658090609,0.835263209,0.509233675,0.519869444,0.728495527,0.802618348,0.76131313,0.573832019,0.230966454,0.699261033,0.79086648,0.574271172,0.687753603,0.580053926,0.582186473,0.455686741,0.700332338,0.831275364,0.86480514,0.759427818,0.707237533,0.792189371,0.742140761,0.690541373,0.769951063,0.783327557,0.807639409,0.768842348,0.820048218,0.783205419,0.785484387,0.727281412,0.65149697,0.679108127,0.68429034,55.98867913,50.97536112,55.50698525,75.05856194,60.00937785,48.37599491,54.15476628,46.36880788,54.9010572,60.36702642,71.63154304,61.16963922,59.52529618,47.13975457,63.05225264,53.1003578,65.68290271,66.80414159,74.92411047,62.43988171,54.59243684,70.26867864,64.63759518,53.39244142,59.31223366,45.41057659,62.17572993,47.88849741,52.92170449,71.15705876,80.12312237,61.69724152,77.99341175,51.75220111,91.76599114,95.86929303,77.43687912,102.730455,97.17438126,105.0529867,88.97876538,57.62984872,60.93433277,54.20480423,69.12475729,47.27276139,108.5512728,99.30779306,53.48779195,71.19848044,98.53619829,116.8545541,96.84475193,98.7182345,83.48251101,75.88630924,69.96006251,60.51568399,85.17111265,61.66547322,114.3213902,83.96753729,73.88965431,63.09347918,68.77979309,92.42589602,59.11366781,62.86400483,96.20066049,71.33891719,63.84692983,53.8174517,83.0518604,92.98727385,62.36851114,88.70351673,81.4858317,59.16420933,50.32416834,56.10494569,47.35206805,47.79170555,47.48263546,56.31516362,70.06261814,72.14613738,64.24273153,48.6190693,80.98234537,73.89568771,46.83923787,57.0003526,59.37585736,67.37600256,55.42355306,96.96394238,51.11862925,46.83844745,85.5435549,46.49459613,58.97011658,104.0744726,105.7433934,115.870555,45.27489517,47.51435192,60.28035792,68.85632446,60.62526539,100.530302,118.3389798,148.0894667,122.0700672,117.1981166,127.2929596,125.9200312,113.6921892,77.66325875,109.1357755,120.277497,85.33488162,91.15511458,81.20586502,87.06654048,114.0668169,105.2673222,143.8807845,101.9736912,115.0744247,120.5985954,104.7406285,88.30968525,89.65194391,64.60283637,91.99773687,76.31918882,58.88108044,88.66016039,84.38197527,80.18532186,53.80313312,69.4244255,80.1499344,108.8349861,100.6773908,65.57294433,87.61876993,121.7508848,115.0424179,119.2344756,64.14103623,72.55905403,85.106613,124.0963109,112.9695717,115.1417905,103.6923741,92.79867419,102.3628525,98.22993884,130.7960852,85.72862925,111.1644778,118.8488574,104.2717479,69.78981028,72.61397525,62.69760513,57.25930459,81.15895722,58.16335328,79.6578391,56.4701513,73.08813859,72.15942221,85.3613605,79.46569505,83.48656635,57.96128365,89.00449994
0.428565737,0.946755488,1.22971986,1.056395703,0.333332151,0.874810782,0.703652336,0.674759141,1.048404187,0.879623022,1.093531116,0.885280495,1.249547267,0.740990188,1.153071898,0.447038562,0.84133784,1.393862657,1.334187684,1.239242816,0.857299561,0.956209813,0.861337686,0.347268811,0.439379228,1.002052041,0.842805907,0.792378488,0.965314177,0.865874218,0.804193448,0.833671447,0.789909348,0.900992418,0.865320632,0.912633484,0.761571335,0.879969287,0.828244534,0.989462337,0.7713147,0.733137685,0.943572847,0.905982469,0.317099728,0.847307271,0.800848185,0.785937329,0.876268583,0.853080173,0.894458621,0.718209658,0.78099904,0.722661313,0.683097534,0.757535987,0.624954231,0.730444032,0.758419846,0.787585716,0.851402614,0.919766127,0.740050598,0.775329909,0.654343603,0.728258408,0.813619523,0.898051383,0.854171399,0.784363388,0.799171689,0.829995297,0.930295976,0.783335457,0.698684538,0.459180075,0.820641949,0.376536864,0.597553177,0.922436193,0.545611105,0.664003162,0.875547406,0.959921077,0.387640916,0.783813841,0.854332496,0.828714058,0.865946803,0.299460895,0.166261658,0.749396912,0.739803601,0.731246365,0.722865173,0.826281973,0.842760261,0.720546155,0.812646225,0.52468249,0.739342044,0.635465032,0.745202333,0.624826229,0.766309812,0.694992089,0.663351032,0.353472877,0.418647367,0.314946552,0.727846016,0.823547088,0.737960208,0.613279483,0.787769007,0.707791163,0.817852174,0.739166897,0.809596134,0.7981582,0.744364676,0.721420755,0.777907316,0.786248332,0.857927734,0.811804724,0.827539655,0.754690986,0.741925772,0.65976046,0.671025349,0.639463495,0.282805521,0.558270746,0.266768357,0.453099933,0.829103484,0.691407401,0.808677285,0.622062265,0.418028694,0.175538666,0.474506187,0.564122239,0.788911072,0.778269542,0.793354253,0.568822257,0.347532757,0.402210376,0.710779898,0.686805641,0.697288231,0.436569681,0.525972687,0.797823518,0.55945229,0.82427434,0.651159522,0.840533766,0.778165039,0.701013,0.467258426,0.215266076,0.30666973,0.381844074,0.483112793,0.767173601,0.77880526,0.718143819,0.544164575,0.736117539,0.790975839,0.776173854,0.783623464,0.894332768,0.889814134,0.769925069,0.816662988,0.781799907,93.47158013,100.1594688,57.06146012,80.65311738,117.42553,90.65331328,84.11043706,102.4698845,64.62761223,83.7199915,51.34985153,54.11503579,57.28942139,98.24382982,59.09726231,64.37784397,57.31534796,63.87217895,56.5284272,56.28030924,65.52843294,63.94557412,61.02177655,112.6692622,117.7804864,76.37442101,62.98333443,63.45715696,94.06509787,60.49617191,98.35059912,75.79787509,73.28279353,64.00930738,59.60201111,68.37605753,61.25073037,79.30732671,80.16561347,82.99074433,81.74263428,66.59518695,91.1683946,84.25368679,109.1350543,85.99156379,107.7982353,113.4256538,53.42971813,92.60470578,81.5570801,68.71704691,88.84020512,58.16941768,86.59087092,59.90730478,61.12154298,63.58190816,59.59267005,71.60148308,70.34783504,65.86566287,71.38971961,78.73033726,69.32392145,81.14821215,72.75181541,61.7425679,58.44060677,70.12451552,70.19701424,59.74665078,61.01189077,78.96051372,85.7751173,109.6795458,90.42947905,105.9714635,124.3794422,56.24442199,58.10690134,72.84096306,94.63416815,66.28548021,98.49812283,103.7299303,68.5896829,69.74226724,92.59365961,103.8079614,121.2524082,92.06820878,105.1915541,83.20672367,96.83529345,75.48529297,65.02558323,111.3345697,70.87744068,79.56102563,85.07002939,70.53672606,86.62667792,89.6966391,111.6410359,63.24368982,104.7492121,94.66170722,124.9148492,97.91039022,104.948184,84.12951043,101.6994114,121.7771676,99.49809982,74.75947662,57.51037124,57.76962457,62.38851925,75.36281359,69.31884154,54.37862206,65.64788453,88.51522573,79.81245004,93.84473994,71.75243513,95.04346983,98.61765675,90.12811716,81.36258811,94.63417436,104.0559801,116.0827035,123.8750464,120.1254105,80.41111873,117.0931593,92.1197457,81.73567839,100.0461634,126.2222274,128.9433238,95.11670011,69.53418147,80.99910865,70.18863164,94.68447323,122.0862076,116.3442392,123.3593266,77.74437718,95.36441674,108.1108311,96.34170554,52.98817377,95.54454083,116.754382,122.5713553,77.11458536,60.69604811,63.6212557,110.5798077,127.3970856,131.0410805,115.7061173,113.4745047,65.90226466,63.02117546,91.14473204,103.281477,101.4915848,81.20915016,96.03882303,66.44504455,74.08360542,70.1341997,63.48856643,71.86800015,49.59429889
0.669570151,0.773777344,0.728824067,0.726382398,0.65390232,0.805829654,0.620770947,0.774727694,0.644068287,0.618690751,0.874841975,0.56270153,0.840884059,0.818107028,0.625669661,0.655625534,0.657591894,0.761649083,0.83987938,0.803393253,0.628116617,0.764253008,0.721388911,0.699471829,0.592238484,0.711290306,0.727636382,0.728028816,0.702287406,0.702048212,0.760443383,0.739664408,0.770279277,0.81544237,0.732789925,0.744555243,0.799925458,0.908281462,0.691616846,0.588591548,0.56587623,0.664110243,0.723617308,0.675989381,0.663577706,0.702689817,0.683193237,0.63460151,0.719861087,0.675502241,0.58429396,0.736877525,0.661739217,0.627485762,0.715141609,0.603719864,0.61982994,0.591023784,0.587444274,0.538410092,0.661795056,0.682355339,0.735820956,0.605184153,0.696805598,0.529695645,0.576651149,0.640817449,0.569991276,0.635214354,0.638377987,0.643051735,0.655168853,0.636486663,0.57085908,0.60367851,0.650186308,0.630895172,0.624917056,0.567205657,0.64140055,0.62459412,0.609347502,0.757184347,0.544821705,0.699241827,0.664605842,0.604369945,0.639292572,0.681271269,0.741433422,0.604751937,0.718349875,0.640644395,0.658015859,0.636089614,0.563923756,0.618423098,0.684043295,0.684142207,0.704272018,0.716052256,0.583347412,0.906535769,0.885681881,0.86710318,0.89117648,0.821575713,0.73065025,0.611608738,0.598555078,0.775275018,0.757889318,0.719353672,0.703704421,0.913803491,0.737176389,0.784777503,0.835513219,0.704226596,0.591429738,0.753898965,0.628350711,0.750532277,0.724829914,0.812360067,0.703227831,0.728384551,0.710543092,0.79193982,0.625594488,0.591916868,0.735868299,0.812937473,0.734591222,0.604591421,0.658864942,0.758608089,0.85813438,1.017650049,0.948446659,0.940838511,0.890051414,0.938280814,0.749206021,0.786510467,0.712799004,0.679340581,0.713849482,0.862384319,0.843926696,0.764852495,0.834205222,0.787561342,0.792353187,0.660561114,0.745220525,0.826190998,0.83540193,0.713519662,0.635501101,0.644768619,0.761166934,0.927418026,0.743733884,0.657430393,0.72982106,0.660777108,0.616158793,0.682397936,0.671640975,0.625762133,0.765577764,0.711176343,0.69316325,0.668970226,0.644957043,0.626835054,0.669055005,0.681001065,55.23782491,60.98256954,60.49389133,56.2856015,55.58391982,60.33845306,53.2912338,51.62018328,53.55676486,55.9373144,78.29213246,55.48640747,56.42741667,60.26391951,61.19111189,61.33735365,60.95209578,64.05177756,56.5699319,64.26349872,49.82041479,58.81541372,87.39235929,61.92519986,49.19815413,57.6032084,63.27821778,63.32120289,67.44511034,51.41022595,57.9187395,54.05589054,60.02888625,52.74319288,51.15229061,60.39796487,57.3547113,53.93787387,47.46132782,49.11637197,60.13733393,62.01254652,82.53428708,66.04457414,81.44348525,64.67670459,91.79332934,55.85260885,65.52929596,51.36220477,63.34033363,61.22154011,59.59816181,56.99920833,51.90995669,65.00760945,52.13918499,59.53508046,52.86483472,52.14758707,54.27387493,60.64712901,57.11111639,63.99394201,62.57338146,55.03312463,50.65031122,69.90218874,58.09008665,71.30784769,67.06615133,56.81042415,65.51979319,56.70986769,62.58197331,56.48462594,70.999943,58.75701908,67.61843096,55.42921659,82.44677677,70.0111357,54.14785231,83.20071198,54.10807448,75.67311836,57.50662331,58.26024828,54.57876795,63.62805814,60.43284742,78.99828739,55.88358792,77.38092073,65.54439711,68.50825205,67.73592636,60.77381399,66.1450453,59.60851001,73.00074729,64.40137773,65.17216689,75.32201738,63.04894386,53.80918643,62.27158353,56.68955381,55.74329149,50.48248904,54.93872919,55.67591684,54.90934853,60.17521559,77.26393371,65.27674139,54.81629165,57.18059685,66.33960352,68.61811683,54.70721369,62.88652084,53.35765205,63.37994275,55.07027083,65.60969411,67.7729574,65.22747408,57.15737432,74.69215166,62.95355553,56.90034355,56.08641517,74.86850905,54.4282769,68.64800175,50.50222981,83.60068242,87.43018066,93.81898905,52.04320779,64.48362183,61.50008164,75.86355984,67.99648126,61.97389329,58.63744555,53.12749237,73.34188238,67.35396866,56.83722489,57.44700717,69.50750616,57.09774268,57.73091595,76.09357745,60.71027036,125.5896012,66.91675141,72.56253655,54.76294724,56.46159721,54.41299534,79.71859676,53.16457163,83.51204695,57.72880203,71.48301105,58.98030356,88.64218542,48.33417231,47.73811413,124.4747092,58.69777089,91.73400428,66.95675134,60.50114982,66.36826641,92.27901079,50.47998052
0.480600761,0.718588408,0.646925676,0.654512432,0.658586455,0.631863525,0.65371993,0.669542425,0.668771152,0.687387741,0.629006085,0.639232198,0.67669567,0.704964948,0.287113815,0.190660945,0.279972698,0.676136818,0.692642383,0.600570787,0.583290955,0.540244426,0.655251157,0.649459135,0.49849073,0.675597682,0.707006504,0.446380794,0.71908532,0.77142362,0.696276503,0.302330816,0.26417037,0.252231993,0.594064861,0.582514311,0.532312255,0.694248943,0.534036215,0.696587789,0.488325009,0.648076022,0.612190048,0.75492156,0.682091216,0.64797168,0.715385167,0.320549167,0.261765906,0.286385656,0.694742304,0.670613971,0.671427215,0.729205168,0.765319998,0.810542594,0.652599285,0.711179953,0.667941827,0.639755381,0.725413186,0.627995519,0.638712747,0.597877709,0.373086827,0.26349656,0.23464786,0.7453203,0.774346302,0.672200968,0.753300097,0.753327757,0.71175201,0.751135263,0.684816095,0.780763895,0.698382535,0.684956406,0.769908363,0.687474341,0.67764169,0.405863638,0.096731731,0.081596333,0.361489007,0.739343236,0.743222285,0.616506145,0.756296384,0.661358384,0.651483125,0.695297285,0.664731948,0.711087369,0.650563778,0.704300401,0.647799404,0.640248322,0.104814353,0.103780824,0.176210529,0.546528515,0.656975608,0.625742438,0.655411178,0.739888588,0.695732356,0.61676764,0.655468914,0.630701489,0.647018018,0.671156733,0.664459793,0.708135051,0.187407558,0.122034468,0.185255449,0.637363088,0.630776406,0.673300576,0.677115552,0.642780627,0.709512231,0.617982807,0.654031343,0.653089841,0.643586761,0.622839901,0.604779106,0.656101826,0.277139081,0.068776106,0.119241512,0.469492984,0.638779241,0.599085233,0.653633329,0.639802202,0.719698239,0.686859172,0.622766338,0.702686629,0.624896618,0.657716446,0.74116521,0.644387104,0.6269248,0.188192508,0.093643959,0.114192419,0.654622885,0.560251977,0.544442165,0.674946917,0.633038044,0.68766787,0.636440267,0.686088163,0.674923319,0.598391271,0.672368784,0.585922824,0.625411946,0.46412841,0.075356812,0.05173096,0.224286466,0.664935463,0.695394249,0.648469902,0.657948789,0.643500736,0.646659159,0.588978011,0.645157066,0.636028586,0.635959957,0.6101083,0.622299654,0.649130531,64.64919312,68.62839035,67.55435213,69.69625896,67.05134419,67.84738311,63.12538006,64.87784455,68.4344555,71.18415139,66.90782518,64.7954624,69.53083755,67.03959372,63.73878414,64.00077406,62.07032825,80.35553487,74.05445357,87.29993615,76.47390158,97.07076265,88.02610716,72.03802845,87.17405963,66.98931844,73.75183739,80.52459601,78.12485174,70.33149993,70.13433226,63.31958163,68.70596482,63.84953858,68.20384928,80.21381235,79.71078423,72.56089059,79.20727125,78.01873542,90.2797059,85.50430456,85.47327198,75.17466201,77.42673297,69.94001818,66.0776931,76.72471439,66.82110397,67.67511449,82.23308168,67.81680317,91.20964425,85.8782116,67.45526538,77.43576787,86.82796893,78.92671553,87.49632766,73.4854079,83.48511679,81.39824135,69.87499469,81.62501397,74.67439297,63.38795882,68.89083524,74.11764079,75.63749626,70.30921714,104.9786852,71.35592105,85.76378793,68.16644742,85.86139516,71.96775787,72.62899191,89.80606917,71.29728566,64.09175939,67.11969687,66.71404656,63.69270501,62.46183345,64.86006143,68.24200799,67.7047721,64.60945553,66.4732895,66.20126318,68.64797318,65.89014054,68.63873261,69.38741036,67.14756654,66.16242641,65.34038257,70.40502114,63.49053101,61.46726983,62.94328697,67.44684652,71.9750154,70.41404913,66.18520081,72.10657396,69.42611492,70.43366531,66.01019464,66.70894868,65.11466822,65.22539011,68.88789473,69.93761226,60.73671953,61.42404533,62.79059927,67.65651097,69.14870801,67.83823927,70.2210755,65.65665884,68.07049188,69.44428356,64.60171354,67.43932971,65.20909851,65.53374544,68.23713389,66.70045752,64.04039237,60.53025384,62.02123436,68.86486422,65.36935099,65.83216958,65.24357028,66.7279708,65.48776598,67.36892162,67.27743152,66.20869489,64.66607231,68.92453004,70.60202975,69.48637029,68.42919207,61.88859283,60.96507225,61.2466894,67.63091184,70.9691198,67.49018215,64.72599834,67.1819909,69.94719491,68.17011187,68.45699695,66.73172177,65.18695377,66.53390087,64.65646024,66.51581374,66.36377942,61.09785334,63.85888647,65.28821796,67.74622996,64.49304672,70.4378766,66.9200354,76.91127872,66.46789497,66.73458427,66.15759347,66.6472152,67.42170977,67.4233448,65.18859686,65.61342396
0.870953183,0.862969476,0.62982255,0.650078323,0.657443824,0.636488632,0.659669042,0.692539924,0.712372409,0.745606441,0.823337407,0.768786658,0.73245827,0.586790823,0.689159989,0.748695018,0.831692382,0.74181074,0.708281502,0.606312694,0.611151042,0.680389034,0.695010827,0.660039107,0.650534146,0.655510186,0.683026047,0.845437798,0.803889227,0.743000855,0.673599696,0.680628923,0.628560885,0.660296924,0.777419207,0.641631821,0.784230875,0.696770099,0.741429072,0.677539588,0.506634813,0.757157153,0.53017759,0.876845824,0.77737117,0.469201424,0.612739481,0.67615914,0.480606777,0.550317603,0.458478321,0.480679405,0.661162994,0.432975975,0.612591254,0.469335769,0.511976999,0.474599231,0.606734793,0.552126537,0.597138642,0.561755318,0.568385663,0.666278332,0.623483451,0.634994288,0.673474667,0.501315337,0.495245254,0.504586254,0.446870662,0.615634523,0.502736168,0.501671304,0.60777729,0.532711408,0.543456056,0.494557047,0.523719526,0.560393893,0.602463183,0.544696753,0.486402994,0.610967489,0.479383545,0.641352073,0.531624646,0.581087629,0.535604382,0.591950818,0.520440258,0.514539478,0.444661608,0.586192169,0.712517044,0.640918022,0.412511122,0.489191923,0.418885069,0.600009805,0.569490859,0.672286271,0.558412557,0.588469793,0.600214754,0.517551059,0.488602329,0.520819467,0.562917519,0.549014102,0.49661562,0.607142985,0.547764298,0.564299684,0.587211539,0.56221972,0.536178188,0.540553811,0.537218387,0.525287011,0.585405152,0.447626201,0.555388451,0.518864816,0.498845649,0.474252622,0.438776322,0.513481101,0.569058316,0.565659746,0.529465854,0.329820863,0.469771237,0.537852411,0.66240533,0.596068544,0.620201132,0.857104694,0.82882373,0.876635501,0.634425545,0.552045643,0.574020741,0.591833077,0.761755892,0.725995485,0.716451105,0.50920859,0.528187423,0.514567043,0.596600907,0.461483836,0.394819971,0.637959239,0.472812675,0.614171772,0.536437911,0.626326768,0.519560084,0.533540478,0.556070879,0.635513382,0.622965035,0.817739883,0.682838379,0.509574409,0.559821721,0.711409755,0.64385859,0.527162884,0.501662711,0.434117223,0.226596383,0.065282085,0.614593932,0.731353361,0.833135927,0.633367256,0.730239511,0.64329402,86.61515076,113.6435437,97.88336987,86.53474132,88.3987486,94.88457837,58.92066163,80.35667452,101.327012,90.75070228,96.49985343,113.1588646,83.57635792,63.69798273,75.41088481,103.0302918,62.42219893,88.97071359,67.90562505,85.82621004,84.98975225,96.32742395,101.3091428,83.75057901,68.07317732,76.86490959,94.25040957,73.37154896,69.55166708,72.77178861,70.41277044,62.77900431,53.11817048,74.01328852,59.33313135,94.96966544,66.16497254,104.9820731,81.57286916,119.1351469,58.61611405,96.4263423,77.68204229,91.17678952,64.89883947,133.0868403,109.8857057,95.6986858,71.16676824,79.65136561,63.63548383,79.47297435,89.93821909,87.53589839,60.06998713,97.93886689,105.9933835,122.1198456,107.8795391,113.9257549,122.7674496,94.24505693,95.29052673,127.1392968,117.0742745,93.46129757,88.64136909,80.50766508,75.11044874,71.06125982,73.25619898,70.74368085,84.96028753,76.2921808,84.9816941,65.45696554,59.83065126,59.08660838,74.21904958,92.51521177,85.9800091,84.16046258,60.41243786,87.52674947,63.88261866,83.2981353,65.82172906,77.05156057,57.70696156,83.20378132,77.81019886,68.94397254,74.84183274,92.25340126,98.27940155,71.9615269,73.37031797,62.0203792,61.63209797,90.26777193,69.00627031,77.74088208,91.9903769,131.6834854,92.98048028,56.35368843,53.84851379,54.25382023,69.0912375,101.2802372,61.99368113,58.13386046,60.12440553,82.99312219,88.99761518,103.1362297,110.651919,95.92938463,75.22173513,59.53702042,64.24148959,75.10149368,89.64622657,57.12680231,70.27793129,93.25156997,72.32710171,66.94408394,60.27852215,51.61715628,74.75892481,62.73719933,68.86493703,57.48548582,104.4270919,92.74571856,59.90882036,84.01690739,70.2791013,76.0731255,108.0919169,52.48577315,53.43326488,67.83140679,103.3401053,97.28923468,74.83199864,125.6327069,73.10380243,63.57369607,98.10156594,71.35057777,65.5240593,81.32417157,93.79835922,80.52078641,103.5000268,82.07038543,80.71492423,58.22454912,78.15878866,55.45348051,94.65419409,69.28748686,106.962335,64.01598082,65.35401495,61.07728833,96.56432211,82.43220839,74.9073057,96.85518561,126.9017626,122.3359721,116.7397928,98.00622875,101.716112,86.56383114,123.714556,107.0861111
0.872913122,1.022858966,0.956674247,0.9344597,0.883307186,0.901638179,0.830632064,0.966146856,1.028778453,1.011888557,0.973821836,0.921025084,0.913138375,0.771997692,0.804587653,0.902383873,0.89942702,0.891346894,0.822088115,0.886031256,0.990078724,0.755029468,0.817145256,0.972416095,0.853893423,0.966396043,0.967977832,0.842254346,0.972583311,1.00853624,0.850773554,0.925712583,0.875034922,0.928727657,0.902278442,0.992270787,0.962337451,0.982019641,0.892466314,0.938432167,0.866578989,0.807283817,0.846916327,1.034345206,0.843146128,1.103668587,1.124422979,1.200893067,1.085314681,1.133792811,1.253142029,1.165969414,1.168104309,1.235845884,0.408596495,1.070983301,1.022623756,0.245876899,1.126689069,1.071273416,1.128391281,1.160918919,1.192968706,1.132891566,1.218762915,1.185115222,1.025410294,1.062084121,0.157149783,1.014597527,1.059291856,1.120327675,1.149525476,0.199184941,0.578243134,1.002405445,1.130089064,0.991668449,1.053611522,1.148909044,1.182215605,0.449805252,0.939599736,1.172466205,0.989308464,1.02258677,1.045742578,0.997647601,0.993372078,1.028906869,1.082402397,1.133543538,1.038188927,1.007650584,0.976253616,1.045471319,1.088682006,1.156170894,1.095044042,1.08337081,0.943428096,1.053467136,1.12073068,1.065827033,1.139263003,1.10514826,0.93960772,1.043576963,0.901535015,1.005186034,1.127367511,1.103188816,0.96600349,1.062657088,1.085079979,0.97447854,0.997470036,0.817283403,0.873289633,1.00695718,0.916505334,0.798962904,0.994001252,1.003410395,0.891321088,0.904812979,0.981713604,0.795052381,0.842320894,0.859642069,1.015902405,1.009306325,1.013142474,0.894300876,1.083535517,0.808805066,0.967975536,0.93360724,0.853716985,1.039572407,0.986128122,0.971028032,1.003882227,0.94390045,0.907610701,0.944147237,0.939980359,0.741169857,0.915930979,0.879226329,0.835735264,0.963054636,1.03159196,0.928314395,0.880531189,0.856671072,0.87073908,0.832221664,0.735377028,0.816872223,0.874200687,0.784476854,0.866594133,0.943318455,0.918796083,0.933669581,0.823810422,0.860208977,0.951340231,0.737622543,0.885596598,0.891106717,0.957190102,0.887090106,0.998587238,0.892425441,1.021354419,1.078468777,0.967064302,0.944844276,79.69869526,87.87322927,82.14919714,99.13000428,71.66756951,69.71299134,72.63068036,64.71189392,87.8975342,74.25418939,85.35030626,99.1777603,104.6677538,70.19122121,84.84300256,88.47355562,95.5567603,82.27337638,99.02392469,82.14387916,79.61918,74.45249303,74.66860716,64.35828505,75.75903594,91.30378041,64.34395088,88.8716932,69.53200758,91.34048578,107.1594058,64.96702421,82.54036816,86.87894704,78.76539446,67.71997748,77.02738892,85.34745132,75.21928872,85.62241218,69.85292228,76.33799238,95.93428458,71.92699903,102.8818169,78.4500046,58.0240663,60.41024892,70.30237698,72.98530261,73.16673457,69.52921375,64.30716393,70.88518051,112.5738973,56.73349246,96.07017558,125.2492223,79.85779595,76.27708197,63.51208722,55.96371198,71.86960447,76.32457348,73.03479128,66.79767004,62.07569907,78.71204334,125.2165253,81.64648115,71.44496113,50.71400608,70.27085795,128.2763289,114.1338149,62.53661307,54.00315923,51.00456091,59.0646576,77.36784623,68.27944842,58.85400358,72.98287377,62.4299334,53.87798412,62.58973174,59.671176,68.04811927,58.36591071,68.30274623,65.07604551,67.06428694,75.70424719,55.84286785,48.61900459,56.04881396,62.06301841,64.52388653,59.52219802,60.03180839,75.55462761,55.68838022,61.02551734,73.15601779,67.33441422,55.8148866,54.47822627,61.34228372,85.63904206,75.8349834,89.79307899,62.85695526,68.30878037,68.77893674,65.5103581,59.12990608,85.47227764,83.46666493,71.27784902,87.79678489,75.22011042,85.8386104,81.27019644,66.4194993,94.65980655,77.08643353,85.18179841,84.00698399,82.64505891,64.18888435,78.45782929,77.98719967,68.79728283,84.39614299,84.43783463,72.43767458,82.42404199,81.10911206,76.36053535,80.10877203,84.00520707,85.19201108,86.46525576,123.7402478,105.5831594,81.72645112,91.99830881,83.24316506,78.56989213,82.01907675,64.21101137,79.36031513,73.63853759,86.97152484,71.12524793,80.28428974,69.60284786,85.80559085,95.59482972,82.03744101,59.43140166,77.40644559,83.06966608,78.69428419,71.19056355,74.08341184,67.60055448,92.13326174,65.7494861,58.23580478,86.61386695,91.76378095,69.51018708,89.32895747,75.7399005,71.37676438,79.43662033,73.57358223,85.66753612,76.2125564
