0.406662285,0.397309438,0.376529688,0.364530317,0.377219456,0.392066561,0.381804023,0.458690728,0.433155965,0.438341335,0.432618601,0.431660624,0.409670649,0.393724659,0.365798635,0.405386058,0.397095525,0.44356076,0.389022814,0.385148862,0.396682473,0.357732142,0.38022313,0.366231143,0.382284222,0.404514388,0.378584222,0.470231092,0.45136912,0.430913174,0.557992207,0.443354877,0.451277753,0.48106797,0.459562674,0.520227622,0.505859565,0.431346151,0.467986821,0.429558673,0.372289284,0.395425834,0.412187551,0.447346422,0.472921317,0.463708835,0.452136247,0.486740962,0.552222726,0.589653961,0.510591404,0.571400493,0.559810906,0.587742697,0.599570463,0.768339821,0.641738767,0.471322057,0.410202307,0.377578321,0.395099255,0.434639076,0.528153785,0.419676762,0.429614004,0.399503481,0.449232803,0.379817795,0.347889323,0.312041157,0.432057381,0.544366143,0.394313167,0.391189293,0.370173193,0.344430138,0.321223362,0.373529312,0.336094763,0.311730789,0.334235596,0.378987513,0.334473659,0.386194434,0.40769858,0.374738225,0.362013703,0.353071103,0.359564702,0.416742003,0.366471808,0.356186767,0.304975092,0.343255296,0.387440374,0.314022762,0.326888737,0.321669825,0.369820013,0.321865166,0.323409818,0.385268932,0.34064486,0.329891799,0.356446216,0.340901745,0.394317798,0.380867372,0.354903753,0.367405398,0.483345662,0.385417674,0.365224634,0.369657453,0.380025997,0.356878876,0.3934592,0.399091969,0.34924434,0.335868926,0.346083476,0.396453719,0.33545708,0.332251722,0.343914863,0.356819788,0.347124997,0.36836175,0.362258488,0.340691791,0.355700277,0.370132528,0.329173003,0.312770902,0.340025839,0.3423684,0.344018725,0.366048872,0.361601746,0.347778363,0.362850066,0.338935288,0.40950021,0.366753821,0.37041664,0.358653002,0.354617681,0.34023904,0.383402308,0.380800952,0.363754112,0.342942697,0.317438185,0.37120036,0.343400086,0.350937054,0.369475158,0.381627377,0.350138329,0.353427148,0.342560592,0.336733539,0.35176589,0.380322527,0.414376589,0.349148101,0.327722887,0.342118016,0.357961284,0.344930346,0.357008439,0.391761463,0.33754976,0.340379783,0.330036544,0.342993404,0.370389527,0.344270108,0.358753758,0.375786363,48.11037448,53.15060417,47.02717161,46.97512659,45.41131675,46.27005126,46.40120568,46.29328491,46.22376326,43.35751274,48.00976214,47.54710879,46.14916327,44.8720382,43.6976489,46.39945167,46.33002333,44.51730163,44.01648791,50.96705534,47.65968601,44.19291579,47.12634323,45.75706606,47.01454065,46.71618395,44.54544548,54.1762559,53.02185941,44.9565604,56.76976869,49.44388424,44.74196426,49.83637678,47.28253383,53.4872601,55.51567826,45.39579214,44.96218536,43.66791513,45.33986932,44.20418345,43.04043717,43.43382728,44.32503113,44.67122852,42.57888024,44.97381263,46.42093891,48.34359048,47.76288861,42.66092376,47.85973905,46.9770032,49.36186414,48.82794268,51.92768286,43.9119255,45.5043142,44.61845504,47.97236532,46.67450469,66.26868992,48.08672469,46.33924282,48.74248644,45.89676958,44.75381989,44.92987951,47.51867815,67.59460995,73.01063062,49.15336091,50.93321274,50.66942193,53.25650477,50.94135141,51.01942251,45.13236781,49.17447533,49.69283676,62.99507731,45.60263182,51.6498897,47.43515034,46.95245299,48.60028963,47.45431166,48.93956072,43.66934785,45.60088983,46.27478699,46.28866915,44.90299007,50.19036263,45.35112076,47.3014623,45.41385006,46.87627437,47.1658268,44.47246439,43.99153397,49.02797056,47.39118786,44.64354342,46.55383929,44.15994086,46.93664396,47.88279211,46.93397352,45.84353093,55.22370466,44.68935185,44.85821202,44.5058811,43.61989494,46.14584179,42.59663527,42.03062968,45.63171566,45.43232857,43.64970558,45.47664151,45.39305716,44.276208,45.82023207,44.33340345,45.93681798,48.38860577,46.07750278,43.99576927,44.23765082,44.20543667,42.6338523,45.04763873,45.12878335,45.81155144,44.92942051,44.91348673,45.3222225,46.60781863,44.30327937,45.34944113,43.76676819,45.1287858,46.6910769,45.69592371,45.45628404,44.82330282,46.69718654,44.54898195,46.84549124,45.95324266,45.81732445,43.3102268,44.7625077,50.12623971,47.85505778,42.68815621,48.22766729,46.32974729,46.22988696,44.60964281,48.84076411,45.85489996,47.82490855,44.10357964,45.84511656,45.889278,42.78954112,47.98754181,45.89784228,45.41126955,44.33557411,44.48434991,43.74944746,44.54883453,43.88136085,46.22245177,45.69950048
0.878319461,0.977546048,0.973445373,0.902100551,0.71002652,0.711947576,0.939504022,0.796519557,0.863893984,1.060354845,0.75671393,0.96194275,0.929445445,0.805590288,0.822461759,0.913792167,1.080085327,1.131787797,0.882253128,0.851864066,0.985440176,0.977855979,0.994869384,0.907700646,0.955325331,0.877822109,0.82847749,0.972776704,1.041262421,1.057156567,0.992295435,0.629891935,0.691661144,0.860995018,0.675713891,1.086688616,0.963999009,0.85782244,1.007206588,0.796246478,0.853063337,1.037219176,1.081021426,1.044969072,0.839906979,0.952691505,1.040374892,0.877235871,0.9362268,0.928182239,0.917308475,1.048433945,0.967160077,1.007123088,0.974046996,0.855079215,0.952991977,1.048097749,0.963745269,1.042571219,0.937500055,0.81486433,1.009999876,0.771558932,0.981250293,1.096141756,1.095049517,1.022893958,1.042771585,0.977576807,0.848927311,0.928990871,0.908277404,0.892128847,0.826012016,0.761953559,0.84351561,0.754207937,0.910280373,0.92534878,0.684289033,0.907363156,0.843164489,0.829390527,0.850773335,0.848782106,0.796005424,0.743017117,0.849290903,0.765901043,0.817077194,0.951828961,0.909620433,0.865431147,0.651143255,0.73974905,0.764750825,0.924469605,0.713627569,0.705773002,0.740848667,0.860974524,0.941272177,0.803534588,1.022399631,0.81217867,0.914598161,0.691236107,0.796129304,0.720941401,0.717033265,0.795859724,0.868305747,0.837107453,0.902817026,0.904225382,0.851434968,0.67734742,0.757054939,0.619060421,0.760105207,0.638538149,0.624212914,0.645798317,0.66885279,0.674777639,0.76306714,0.660233362,0.610953405,0.823075772,0.750166338,0.628998314,0.650058603,0.70770254,0.642326341,0.637059594,0.732822908,0.723991077,0.631824042,0.654451247,0.65166562,0.727396501,0.659755211,0.916465671,0.741651419,0.737894838,0.644760139,0.746864102,0.746442592,0.537853558,0.562467977,0.543337002,0.589376851,0.455891676,0.537464418,0.508043003,0.506907048,0.724393513,0.553017256,0.538829658,0.505595225,0.468110771,0.56136996,0.528463457,0.51140548,0.684112426,0.50889552,0.489978867,0.475919876,0.538929276,0.700596713,0.455262682,0.614074693,0.526587431,0.638303209,0.957143165,0.773701212,0.764915946,0.649794775,0.754874487,57.66211402,74.98842187,77.74679241,78.04109723,54.08576252,53.44420983,66.83817653,104.8401522,63.09480449,67.06924769,54.56340389,80.67498782,58.97316234,49.10954181,51.701153,60.72376529,54.48143028,54.78142618,53.88983215,50.02549766,57.60296307,56.32730761,58.36687587,52.58068241,57.72554269,54.21540339,64.9137048,64.81520284,55.79391199,56.93698523,61.25771831,58.57429748,65.52331152,58.6657739,55.86602645,71.37555432,62.57707959,59.16003165,61.31384569,60.50136404,57.3278241,59.84902556,61.94591396,79.90287799,57.5126604,66.98296421,60.32562619,54.27616765,55.23295678,58.16587321,60.70519316,55.22462486,54.37114703,57.01645029,46.77818013,50.27158237,56.94370867,58.01830454,55.73814067,48.45986546,52.38242045,56.19239827,53.75702641,55.14010955,52.39284091,55.1165136,56.78139187,50.34228933,49.08149852,50.39634289,58.50847776,57.58953867,60.76644822,60.58356787,51.53514,61.28541245,65.08275136,59.35575043,73.30552432,83.99558123,50.91216351,56.96516871,56.93301189,55.37420719,53.97359486,54.82289688,57.93561394,52.56493207,58.37078544,53.88133986,54.15068998,54.67314331,51.72511832,50.0885216,52.78868623,54.95309923,56.30016967,58.7227274,60.68853727,54.89296052,54.28715079,48.57374448,52.36196793,53.01024918,49.63652394,56.64148035,52.27114398,51.82353967,53.71593601,52.03377892,56.59352535,50.49696322,52.00496255,57.41915006,54.14556293,65.12863418,56.19060661,53.20956068,58.63096985,53.76300952,53.7988267,52.50375338,54.01474193,54.5126024,56.84368925,52.80684888,54.37724272,54.88436359,56.60519655,54.3300152,55.35260953,50.94758413,53.51974603,56.65708955,53.65801987,49.79044146,56.62643738,55.53211814,51.53557502,54.26501969,56.30452058,52.85524877,55.02557352,57.01637336,51.42962811,53.39322265,60.02643007,53.3362423,53.58971863,50.05595009,55.28683581,54.92445092,53.17807028,54.65386918,56.93637181,54.03347865,50.71372712,61.0502488,48.03233472,51.42028419,52.30748009,53.25985746,53.04092817,52.47234336,54.04846479,55.82501207,50.53973991,50.97917091,56.01059837,51.72921242,52.97751145,55.24119492,53.60419453,53.85105848,53.23308786,54.35990009,55.69744263,53.39306041,53.65711391,60.99784567
0.409957275,0.461057518,0.419076913,0.412654212,0.519690048,0.643639339,0.526962771,0.41133733,0.428969217,0.437163242,0.376909451,0.396967829,0.451175392,0.368165478,0.464319603,0.612056006,0.706865259,0.404357277,0.33842893,0.443393912,0.371807854,0.418486224,0.36402518,0.425936069,0.371498575,0.366462315,0.464717678,0.568456203,0.46562281,0.449701723,0.437384582,0.497482028,0.513650401,0.523757826,0.390710939,0.380566866,0.370499067,0.450571887,0.47475169,0.430074298,0.402623031,0.42144382,0.376248418,0.364151838,0.374939713,0.383235642,0.391945662,0.387410015,0.433016703,0.594167033,0.536655219,0.563234636,0.477404222,0.401422606,0.423203244,0.479689335,0.319131723,0.396983095,0.505030692,0.511481007,0.525636504,0.453884916,0.551667813,0.461437219,0.494711536,0.568833776,0.53325591,0.522571679,0.494402047,0.512909305,0.485001899,0.539127715,0.561424491,0.552784908,0.415488017,0.479777358,0.552056972,0.548686273,0.487877988,0.507665186,0.586355025,0.487239199,0.452651546,0.44729339,0.494900498,0.538051328,0.576293988,0.538083457,0.510758827,0.565308473,0.562560511,0.551710234,0.61084088,0.588071515,0.606289329,0.572025275,0.594209067,0.612460518,0.584008272,0.633664321,0.553790025,0.534430458,0.573213855,0.642158726,0.637378494,0.606315506,0.579926379,0.607089154,0.573373198,0.606437897,0.726281273,0.637534351,0.477923862,0.605390033,0.58549517,0.545402903,0.635369881,0.667626122,0.60741174,0.61163335,0.595094419,0.5602194,0.585745539,0.621732583,0.556902041,0.571581046,0.56190502,0.625387459,0.604704523,0.594261748,0.554695819,0.599159954,0.569144179,0.641963204,0.587777801,0.663413361,0.624124199,0.684806283,0.697359737,0.732287761,0.699440112,0.651921537,0.674642901,0.787688001,0.775437249,0.624409736,0.591695821,0.564627953,0.477350741,0.669907259,0.534258551,0.676540816,0.707334887,0.675590866,0.694734879,0.690935115,0.577910865,0.660883045,0.641862093,0.550311964,0.590055475,0.763662408,0.600949962,0.638112812,0.610579242,0.765078742,0.677984914,0.790018982,0.641672869,0.603972928,0.493246483,0.443519195,0.445306935,0.62080878,0.443649412,0.651436182,0.427398194,0.461863304,0.427761628,0.672334874,46.68652793,51.10514496,51.10056935,45.64584538,65.27480576,108.5497207,94.62142633,50.69777731,68.03905546,50.49346549,45.45131922,45.77746708,51.21797028,49.47691855,51.03142802,49.30052016,68.4078123,55.72251784,46.68957525,56.30030126,47.50107073,44.83401841,51.62602906,61.9086134,57.4828015,48.56106969,48.29151517,61.03103843,44.88886381,42.77795109,43.67499109,50.70492616,51.69226292,51.79836498,47.7616512,49.02991309,47.47708064,43.3541074,46.75442983,47.04471815,52.90873321,52.51140132,51.22350284,48.90344908,55.69871919,49.96988073,48.18478218,48.32675391,41.5414087,46.03868123,51.51690495,43.72211186,43.16105815,46.22302475,50.33426257,69.36293757,50.73417522,46.38011707,48.97093735,49.91108439,47.37347433,44.15174738,49.80676982,47.14028694,48.5034757,49.94087104,48.93030886,47.24531788,49.69529073,44.18917615,45.27704855,44.96650473,43.51581304,46.19402242,44.61646931,47.82091336,46.05652359,48.84328952,48.30591552,100.27506,103.6153989,49.07820473,47.61995894,49.5598084,46.9630955,58.01168217,51.61473742,52.79529396,46.16067305,50.71300614,51.29603536,49.63484689,46.4898298,49.60774283,48.82513766,47.83541071,45.58208155,50.98691942,48.06397334,47.17861107,49.22990858,47.98577934,48.35245618,48.0883444,46.6079106,45.66932518,49.40248577,48.65968944,47.65837101,48.10929588,50.6088697,47.05574175,43.93864708,47.62622178,49.29129083,48.16474868,48.73717062,46.95542842,46.03625001,48.10987027,48.22866002,49.23104922,48.5073265,47.19384369,47.67627773,49.51640668,49.26978123,47.94852153,48.29686529,48.14836657,43.67352188,47.23281208,47.47132063,44.80451022,48.5293304,46.95856159,41.82586141,45.6130518,47.47999731,44.85184173,54.87613802,47.29532793,52.76345418,53.3411592,50.58110653,49.56593624,50.72750328,48.15573349,47.79651215,50.11985407,44.04388358,45.14074434,47.20592516,48.67462522,54.17243465,52.46702806,46.25490045,51.66184934,49.69238444,52.67660369,51.74380358,48.06543159,48.36867435,46.03143611,47.30163044,45.43428115,53.69779662,58.73467209,46.67750425,50.48348432,43.81243825,48.12210973,53.1747897,48.34347268,47.92172269,52.25957304,55.44457508,48.17802081,48.05940022,56.06997321
0.378075546,0.391315781,0.412125907,0.42917635,0.382004343,0.380292575,0.406199132,0.441043503,0.470533594,0.615942865,0.482420828,0.411326944,0.321371157,0.333186564,0.332162651,0.525241879,0.637502688,0.39641898,0.440483583,0.356728763,0.205050698,0.334314912,0.645768567,0.764795696,0.67374256,0.521099818,0.378490401,0.629889209,0.61550861,0.514165757,0.442108078,0.529434751,0.404329163,0.419950792,0.57959917,0.718734559,0.708024654,0.634060074,0.630635982,0.637721337,0.651859094,0.688507441,0.590799544,0.520536788,0.435550434,0.562437528,0.613302705,0.642264314,0.633735491,0.603700157,0.625529201,0.6424652,0.429621336,0.451786537,0.601751833,0.553833808,0.49633377,0.542543397,0.667548967,0.73793405,0.618834255,0.549434868,0.514366607,0.555356957,0.628575263,0.639738154,0.709641026,0.671137304,0.650851562,0.534320705,0.629150255,0.562697728,0.632913,0.715189565,0.739929208,0.716975006,0.654741369,0.676460969,0.725760495,0.749378791,0.707875087,0.745125305,0.657684933,0.712144388,0.683247584,0.696915361,0.682106709,0.645679933,0.639322372,0.64930432,0.672640491,0.624906782,0.607816788,0.616193543,0.58650855,0.627172659,0.594707108,0.620354053,0.638220701,0.666280505,0.603869384,0.621519889,0.641403674,0.708300161,0.676362126,0.712141555,0.736496617,0.722304635,0.659726317,0.743233671,0.712222854,0.70730285,0.728062972,0.749458808,0.751396577,0.71701648,0.757817275,0.734212727,0.762373194,0.698764296,0.687993563,0.677582292,0.601401753,0.544715502,0.682129639,0.658938732,0.600437728,0.684680581,0.643576377,0.646520339,0.660841195,0.630669878,0.617056827,0.637562417,0.639469625,0.667405059,0.628062013,0.689701056,0.698472639,0.669722136,0.689311701,0.696595904,0.71800478,0.698870966,0.70405619,0.753845624,0.708301,0.692990177,0.718871618,0.713547145,0.73405383,0.704269996,0.701807967,0.731575403,0.685532325,0.747988665,0.7248045,0.735334358,0.679331842,0.619255871,0.68143422,0.771684192,0.640298063,0.685237024,0.645551645,0.691701682,0.480640591,0.507803911,0.414821708,0.429606593,0.546994755,0.401684418,0.74581709,0.632260578,0.412385201,0.49445125,0.48717231,0.571719003,0.472977733,0.457297299,57.94973438,54.09902313,57.8221906,64.22375561,60.07869887,51.85223645,62.23577501,74.68368628,55.23763319,47.49632193,57.71551438,64.06140488,46.97528474,48.9691666,66.26432218,85.19451529,73.48977088,78.44434193,73.55732794,115.1163272,120.9474044,127.5605368,91.71174699,48.99794745,70.86386623,57.86139625,52.94730732,58.16063599,44.84819987,48.27394468,53.0510374,51.03732819,58.34891765,58.40752894,43.95214182,46.59227848,50.41510442,44.2186147,46.78303393,48.71841187,46.23459585,47.38498281,52.3905347,50.5703209,47.37251324,44.9964058,48.14666818,43.71251942,41.58044581,47.84921531,47.76198234,43.73238576,58.5327427,65.2494221,44.5617684,44.93154997,44.33098519,46.31612827,44.84220776,45.51628027,42.85213522,46.69335755,47.50969057,46.16925303,44.91405813,42.99659421,44.89569989,44.3373455,43.72099894,47.67638025,48.42342353,47.26708512,45.08113887,43.0306862,44.48471266,45.42380919,43.47002481,48.18689434,50.52363929,48.83010631,49.86801283,47.62467827,42.75410637,43.45060158,50.87260788,50.61950475,46.83648613,47.01948811,47.18378103,49.82032584,43.33153069,41.19517168,45.72141949,41.80117945,41.64599907,41.6553881,44.87865413,49.51065595,51.47865358,48.55981533,43.29938537,41.27795288,48.82523596,47.16987646,44.16912348,43.6966341,43.44348166,49.03650989,42.05638787,49.18242878,54.89624364,49.25311234,43.79288421,45.8808012,44.05230404,46.01903189,52.39367657,52.11660716,43.01161717,42.93292859,43.61355872,42.57114355,44.76361939,54.53675463,45.3413305,49.01783445,46.40788126,42.69277657,46.50080293,46.75753802,48.82528701,48.87764831,41.99833331,40.6262065,46.33291095,43.05549468,41.82902741,43.86556957,42.23919812,50.02378286,45.53313359,51.19051042,50.04950356,43.08397542,50.17997787,46.98627532,52.32990773,45.96546779,44.40639333,43.85342874,41.51656363,43.9113527,47.87794088,45.21036141,44.23420417,43.78628408,46.20002597,48.31259546,46.39079542,44.03922515,44.88094223,46.80484277,45.87424613,43.10899017,41.69100531,44.84303954,45.2583752,51.71821432,44.19118688,46.71268999,54.97830831,47.99822601,49.44428041,43.51425562,51.65158748,50.45129969,54.73302397,50.40495815,53.01698972,59.36832486
0.789974468,0.804403239,0.942809275,0.94643905,1.040725208,0.873953231,0.907881903,0.910826012,0.931538567,0.882732303,0.840693415,0.759572542,0.953005911,0.787297367,0.702732431,0.758318482,1.092131068,0.786956768,0.717057762,0.947646304,0.799150043,0.75002086,0.863813348,0.697745561,0.838812919,0.896019265,0.95442489,0.956114457,0.937732352,0.848967357,0.896582537,0.820803288,0.796694451,0.721155483,0.631687254,0.779327111,0.720236913,0.880488338,0.655788169,0.69327745,0.829919467,0.831126745,0.714531501,0.750098891,0.688240651,0.716683159,0.730260207,0.752019633,0.739351762,0.765301398,0.731687632,0.755530366,0.778309487,0.783035983,0.95405201,0.851235925,0.829103828,0.762495397,0.82717051,1.012046404,0.968365466,0.830683551,0.877693013,0.851777718,0.902063358,0.91302901,0.781228585,1.017062716,0.835093394,0.971847872,0.955084823,0.821912508,1.021899253,0.978756297,0.846315987,0.823712786,0.770275501,0.816832827,0.70555861,0.893221792,0.71074889,0.662407927,0.733742636,0.85107416,0.667471003,0.972048565,1.085064297,0.848810779,0.740407437,0.830322157,0.80781844,0.922235455,0.778917023,0.852155659,0.768944715,0.890340263,0.848513373,0.754641543,0.828128832,0.75854001,0.762364076,0.780611764,0.787068042,0.808252591,0.745749655,0.762912785,0.830190739,0.780012464,0.775934357,0.742093333,0.843531002,0.699778937,0.756412969,0.799106511,0.776029268,0.850442452,0.805139378,0.831696647,0.803051093,0.812237953,0.763523105,0.702201289,0.749572962,0.856875352,0.853202837,0.836362439,0.806744495,0.817562509,0.882603393,0.850927242,0.733095618,0.819073699,0.829527338,1.041355509,1.03015654,0.980841436,0.907456996,0.920004529,0.894168347,0.915628559,0.845823181,0.83825737,0.883452112,0.899276308,0.895317404,0.94231148,1.054616276,0.93580243,1.093789682,1.065553502,0.94323099,1.143920951,0.719495245,0.754510179,0.879708655,0.917337599,0.856893764,0.930790239,0.776742322,0.875538424,0.920541953,0.839412216,0.867707342,0.863969836,0.785602978,0.968510988,1.000864524,1.066181657,0.988935679,0.893277547,0.757896227,0.877698393,0.772910317,0.827243191,0.952134308,0.94636956,0.806216616,0.80711027,0.854134667,0.979955589,48.2087861,52.06702307,52.06246905,53.81169761,49.16448517,50.87645557,47.29237007,58.6087865,53.51298869,48.72833327,52.59456798,44.3557997,56.92365136,45.72800968,46.46026392,52.06522889,59.97431976,47.73508565,48.42034781,51.03558666,47.2176325,41.62096863,51.03570896,43.03809031,43.45798911,49.75559115,57.14136393,53.22148884,57.57879946,50.43501135,50.69939529,48.04174388,48.50344193,47.80578495,47.47624257,48.21850077,46.25974111,53.9868882,46.75925808,47.33210404,54.14417571,49.88993186,43.44119171,46.43716003,45.06485845,44.91753106,47.70700596,46.4579593,46.80864093,46.64773629,45.9345083,42.50316083,44.65342527,46.0821289,60.82863976,50.53083865,49.98239762,42.77527275,48.47019909,54.04404937,55.36692573,50.18939684,56.92163039,49.95970947,58.64219263,45.15982536,48.13757112,51.60868252,50.39272861,58.08614962,57.27754723,53.76229963,54.57857871,58.5107025,44.29706982,49.0531964,44.76025351,49.28315761,45.86770702,49.13220516,47.90188297,45.63302564,44.87588885,46.25463043,43.93151866,56.16912352,59.79291017,54.00628085,48.58317358,49.25698817,50.76864349,56.09799799,49.10518792,57.81460683,54.27153164,52.32377874,49.59121833,51.09701239,51.14638969,48.7547828,46.49786374,47.06469635,48.37322964,47.46280428,47.95867039,49.19048247,48.84167039,45.32147803,46.96377207,46.22316068,47.19679391,49.41733715,46.83340741,48.00254967,49.25560076,47.72389314,48.14810059,55.94956084,44.76639535,50.46903637,43.5490699,47.79633762,49.44403592,52.99961182,51.9281371,47.80676464,52.16083071,47.30205532,47.16759247,56.99008794,46.5415056,50.06924522,57.95820749,52.69345105,60.59423015,52.17248031,50.5923896,57.3188715,56.5810838,58.80612133,61.66684643,49.83373214,44.49087657,54.61193863,44.96642644,54.4312776,48.83875369,60.41446463,67.43279643,58.94716828,53.20661556,52.24571704,49.19824832,48.29311193,50.25798565,53.01229726,47.79764543,52.39118265,42.23754153,45.46633824,48.82827198,52.10896946,47.96075279,48.70083144,44.7402077,49.22491682,55.99524075,59.69253338,56.95879756,49.59161935,42.34754988,50.23987938,45.69148592,50.80280629,51.82810047,46.15651017,49.08198255,50.15691538,50.10642446,57.63143662
0.709580918,0.704450883,0.715750334,0.758925751,0.69288621,0.746590866,0.704501235,0.811078183,0.907652089,0.826967101,0.828937436,0.832769952,0.726864086,0.736393103,0.726674082,0.687998767,0.718469289,0.748449272,0.725984732,0.644569349,0.919607567,0.794371804,0.80706723,0.899733262,0.876018987,0.973252743,0.798390673,0.806538332,0.746505681,0.678855961,0.718994173,0.739042364,0.779230446,0.671173762,0.659488558,0.762807363,0.634301056,0.81486362,0.758529484,0.679507625,0.744148054,0.835591316,0.783938843,0.878759633,0.843541189,0.753651857,0.94243773,0.841608992,0.839912377,0.738974853,0.776076658,0.925538621,0.944818288,0.915822361,0.816315512,0.726054764,0.857926282,0.948248028,0.717634852,0.745214515,0.705990545,0.650983181,0.654199041,0.73593835,0.78069366,0.638213592,0.679045196,0.725581592,0.69401151,0.693751103,0.718671618,0.664177475,0.718079291,0.73309063,0.70245066,0.689220433,0.707041962,0.641537609,0.785446926,0.803339906,0.782131338,0.703578814,0.683669793,0.811650798,0.778296339,0.801562149,0.979608888,0.783861992,0.777182484,0.75214046,0.739449724,0.970982661,0.928952983,0.97044636,0.7859195,0.991042844,0.787169078,0.853944675,1.013659892,0.945309282,1.030132786,0.950649915,1.006330247,0.977511473,1.002676239,0.854987847,0.77702146,0.883313217,0.956452031,0.90058289,1.120227355,0.9705397,0.978595767,0.982057173,0.921974495,0.907196894,0.944313465,0.928625519,0.987711451,0.920610862,0.689901435,0.854471614,0.734934686,0.703513928,0.713915819,0.755414184,1.02172185,0.929579625,0.823235829,0.880317723,0.923656314,0.853287007,1.036264847,0.934414547,0.887395027,1.05723911,0.947205483,0.792689779,0.878357025,0.756206919,0.953877569,1.070001894,0.971149856,0.814483869,1.110716769,0.814295396,0.8433034,0.765259536,0.827435251,0.791631287,0.82732164,0.928156367,0.94342317,1.030330373,0.911734632,0.861810749,0.857454377,0.652327039,0.935622563,0.911036206,0.82679534,0.950835544,0.801729585,0.730249136,0.924133381,0.98387857,0.940651625,1.097666934,0.779699165,0.964000857,0.989116338,0.879633931,0.957372837,1.06464088,0.944110602,0.778515686,0.799957018,1.023950413,1.10278499,0.973128541,48.20451884,47.48774764,50.75082276,44.27446806,45.34109427,51.15410288,45.4995097,46.68378123,69.49486674,46.18101161,53.85997767,53.96612603,57.12693717,57.77986419,47.32962159,49.23749599,48.31557537,52.29394313,47.70909778,47.70344718,51.89085674,52.61702426,49.04113153,56.53296835,51.792224,48.32499903,43.50468508,44.42761582,48.64140066,46.248607,50.40390539,54.92595664,46.16982452,47.63266847,46.55728414,56.42354786,48.18014882,51.28183081,53.5329478,50.24482635,56.10375052,56.41768621,47.06031146,57.89109638,52.29211459,52.27616539,49.38299845,45.38124313,44.71743027,44.65733339,43.44179968,47.03543332,47.70027465,47.09802297,48.5513171,55.24598607,53.35891157,51.79997094,44.51816271,46.56997517,50.89082456,45.38558445,48.87839679,48.07442308,52.81044942,49.07900136,46.23168539,53.11504412,58.42440179,47.38345667,44.32993473,46.31766887,45.23730912,48.90377112,46.48307954,45.89974383,47.07515219,47.21317045,48.21218176,48.94830758,49.20812779,46.66550304,44.62451635,54.13820579,44.86018783,48.93155479,51.71411218,45.37139729,55.45839253,56.32589849,51.93715606,45.35694832,49.72233109,43.38557457,46.55506958,52.08111237,61.76479746,61.34043926,49.18132143,57.4186143,51.24268079,51.47226229,60.52685586,60.66118158,57.2761548,66.16643234,53.59701988,53.46624389,56.19330562,52.66722912,56.52058259,49.61121982,58.64627064,74.96420237,53.18134489,50.36334164,53.28585953,55.22640579,55.48635213,57.10564863,44.26282325,54.58987815,46.16305921,45.11079547,43.42006994,53.476071,54.44649703,58.39413508,51.1817777,51.47554203,48.61630765,62.69906981,54.77212796,51.91460669,61.3508723,53.34129482,54.99724036,59.03291322,55.08091906,50.10171643,56.01057037,76.39667705,61.09155074,56.19709811,56.54189442,45.89708449,45.59336911,49.58759646,51.38668233,51.05566107,57.70629609,43.46459352,51.85375463,55.66666118,61.40622721,87.61260243,53.77735498,47.0651256,46.24279858,62.91486064,54.0593396,52.8935292,49.97275295,55.73466058,71.9726706,75.28670214,64.03614149,57.60419726,46.64483927,56.57447366,55.71232214,53.07663398,65.31135045,62.3774773,69.28497133,57.30116509,53.34219711,67.28512156,66.96636673,56.07990849
0.865078758,0.714158205,0.677691303,0.779667762,0.890787005,0.898252809,0.906952004,0.970052878,0.961746385,0.916767036,0.82047076,0.838365255,0.962038499,0.902348391,0.919151603,0.854462261,0.900872443,1.052150489,0.885246063,0.890860258,0.845887459,0.888772868,0.821331539,0.904656496,0.941070761,0.685876775,0.908883179,0.861183403,1.080260222,0.935117452,0.977371903,0.953077161,0.898650659,0.917204163,0.978437313,0.976038165,0.800167975,0.941887807,1.006628589,0.777360362,0.651608546,0.521101681,0.72609507,0.570674357,0.60498242,0.59952395,0.650770594,0.599534727,0.573515797,0.50280623,0.633422422,0.559649097,0.478422699,0.456056705,0.449233996,0.573483732,0.475294008,0.452368788,0.44382956,0.478124048,0.470640561,0.480963212,0.563790686,0.474078138,0.413842662,0.42826439,0.443183047,0.47733272,0.450870487,0.446809377,0.491148464,0.429151518,0.439916797,0.464320414,0.460678946,0.446693997,0.411874548,0.505839981,0.45338729,0.439940843,0.434546437,0.452249325,0.443008306,0.445168133,0.473921263,0.410350981,0.455122664,0.391135969,0.515174452,0.461192162,0.425746481,0.479452632,0.454857293,0.502958783,0.417767893,0.404792345,0.408446679,0.438715046,0.442960098,0.392748326,0.397999436,0.411290408,0.454029148,0.456545242,0.473787842,0.511257797,0.56223754,0.460369993,0.492724865,0.450791875,0.449780997,0.487532264,0.455176866,0.433601281,0.443744277,0.406765588,0.407867487,0.408473725,0.393329613,0.425788508,0.420252724,0.463840282,0.478580445,0.471033667,0.447983782,0.454547759,0.430212841,0.398666757,0.458137112,0.477455755,0.4846635,0.431533849,0.432726054,0.472345356,0.680629515,0.545891525,0.433115366,0.435224558,0.395873249,0.397483268,0.453461015,0.420756534,0.412124774,0.428479273,0.464196614,0.437687795,0.409429986,0.438845696,0.43308516,0.43729339,0.636372894,0.561073259,0.473242765,0.586414325,0.595443763,0.543604082,0.492401481,0.464415326,0.460773262,0.453277622,0.520488065,0.432978086,0.438936044,0.430030771,0.412595958,0.400812712,0.412713123,0.449403776,0.485351995,0.445472155,0.443928509,0.40205487,0.428460905,0.413634516,0.414705705,0.468235688,0.522277681,0.473200138,0.464552978,0.519959001,56.20114253,56.58819299,62.27506066,50.77045534,56.60190968,59.11139581,64.46043668,50.32123914,53.77695454,69.55255179,61.38147953,57.97772405,63.39906135,49.1130145,52.05143755,41.78139185,45.15682454,56.01919856,47.69248246,91.37894997,82.23345124,84.19958974,58.78919117,71.0509386,78.30373013,53.90225197,58.7847627,55.94875622,54.80105068,44.32437024,47.80060932,46.47030877,47.24582584,50.42145846,66.11842508,69.89760673,63.01604038,59.03930438,72.61292935,54.08351222,44.87511784,47.55762948,54.16866192,49.83973857,53.17887337,51.55755148,49.67594693,49.63199951,48.98201396,49.13089994,45.09811025,47.27551062,47.95196434,50.30903634,51.95000584,45.74331572,49.02399623,53.91223307,49.16516338,49.16114911,50.23642005,50.3381376,46.50188622,48.02228709,49.64605822,52.06171756,49.88774649,49.16374782,50.33851606,49.89667901,49.48233319,49.13724475,54.31878018,51.22032553,49.17836002,49.46423607,50.49275855,49.73615172,49.46447295,49.92203885,50.79069385,48.89153628,48.96152224,49.8893764,49.23012475,49.39207226,51.59893977,48.84996821,50.33578301,50.91473039,49.39552553,48.22001741,48.93794799,47.24652322,49.62155914,49.9900015,49.87988996,48.7291241,50.84652967,49.40745312,49.98786013,49.6495175,48.65574373,48.37374435,50.08630809,46.82561058,48.1225915,49.18675578,48.88383978,50.84007509,51.00796299,49.55928684,50.96695236,49.24406553,49.60877595,48.98335457,50.8247118,49.34177312,49.00660369,50.30642272,50.60196326,47.76335184,52.09860835,46.63370933,50.11769268,49.89606219,53.85324633,49.88682381,50.50562541,49.18636513,49.51632094,50.80048232,50.49740738,48.33106007,41.66365562,47.87253378,50.16819983,49.63947132,49.7811347,49.19850875,49.92235087,49.04164943,50.41104884,49.47390015,47.65647331,50.5054747,48.76952858,50.70443822,48.97112098,50.25506149,46.82221457,45.88222744,48.29457071,47.90269887,45.30576569,46.52111829,48.57494208,48.95324083,50.21595429,50.95033863,46.96637853,48.22128974,49.96381714,46.36810186,50.94785065,50.88060006,50.97947993,49.71580378,47.18811149,49.44210069,49.54784337,50.66011363,50.33930551,48.66389443,50.34959398,49.93815308,48.17636702,49.01086484,50.60217787,47.99434411
0.663531086,0.677973859,0.65056943,0.574056489,0.728502488,0.619019434,0.855962678,0.659419234,0.64808199,0.638698482,0.648647703,0.740747028,0.791070673,0.643422874,0.537493978,0.65779069,0.736107087,0.878138415,0.778031539,0.868490459,0.729025358,0.770148275,0.786345895,0.688186054,0.658699313,0.905553801,0.861905758,0.738440327,0.857979689,0.808807127,0.629111842,0.723471792,0.76130939,0.767283215,0.639639688,0.689766549,0.66502241,0.740475936,0.530676789,0.619637255,0.680220431,0.617364631,0.75330038,0.642543924,0.588432388,0.658522629,0.593446456,0.781840512,0.60516444,0.701752595,0.845422526,0.775016975,0.689451197,0.820048622,0.655916261,0.677110659,0.711753108,0.712273062,0.713906351,0.5649848,0.811821101,0.619754035,0.661991847,0.67189805,0.754946919,0.759029735,0.57325963,0.776884417,0.790163288,0.662805013,0.600473722,0.657681769,0.698610962,0.80262946,0.869160895,0.776200323,0.636296475,0.74309392,0.717587731,0.647706613,0.609285063,0.553365824,0.537922886,0.612681695,0.791804739,0.759482762,0.615334974,0.850307714,0.668216173,0.625620857,0.660522392,0.600947499,0.696092244,0.81519048,0.700489472,0.718191318,0.532344585,0.556047797,0.814053697,0.845162811,0.57905244,0.638452801,0.738720376,0.574083492,0.575209699,0.739296243,0.743638137,0.637092876,0.687273362,0.683097744,0.682205505,0.783773519,0.735308557,0.659445426,0.543931293,0.698729937,0.601562023,0.612311128,0.704930363,0.652658835,0.593169323,0.870452246,0.714421097,0.699682423,0.722662084,0.707076599,0.789163699,0.763206174,0.795887833,0.641608663,0.661933444,0.606600673,0.683696052,0.779622366,0.763671285,0.748183078,0.69328653,0.681623762,0.567216805,0.753778514,0.672398547,0.747336238,0.717300859,0.657371718,0.644989087,0.661861956,0.693744765,0.74188951,0.711709021,0.625156589,0.507266733,0.604047556,0.69479568,0.744984334,0.647644338,0.698063948,0.709856216,0.680813192,0.702336676,0.66266072,0.678228918,0.678017056,0.733046575,0.575731868,0.70787016,0.533260193,0.667998423,0.65204611,0.684138172,0.629848931,0.673440866,0.701699629,0.565133448,0.525312876,0.66256034,0.826897609,0.581618498,0.742500073,0.701230262,0.663833762,48.56035171,48.6411959,45.97113474,48.23629162,49.02456403,48.93754477,45.02709575,48.09491981,49.08443634,45.28028157,48.13911435,48.51845564,49.06226396,49.7627233,47.26556716,47.97551995,45.67489838,53.14221961,44.11893218,46.19351183,48.367637,48.2380911,45.90737416,43.87286993,47.33080095,48.57738948,46.6933177,45.00511045,47.14622071,50.17756699,47.74333162,45.0219919,49.42881791,51.6261484,49.18396937,47.34006768,45.58018146,75.34506971,45.52427149,49.75236704,46.15508994,49.17886837,47.75104049,45.05910583,47.68492796,46.79070705,49.69910127,49.90252799,45.14491526,45.59414019,45.84195614,46.48418032,45.70874391,48.98967816,44.6763453,50.83226944,49.17970153,48.26951091,53.04479437,47.73940249,50.70387601,46.97504618,45.65620369,45.86130546,46.03541453,46.59259832,43.7455113,47.6109333,45.8591837,46.99558765,47.84434038,54.39393387,52.77023927,45.14214428,46.18525068,48.68054505,45.05428235,47.75684322,47.90785162,50.63062837,47.12660839,49.96522734,47.69256309,47.94652116,49.43348756,43.68150063,44.52500134,48.42282819,47.32554371,44.93101703,48.0718428,48.84144583,49.91617048,44.07645526,49.06670129,50.20132386,49.63134495,45.14367136,49.16596153,47.35327547,46.0427191,47.1589242,48.53944461,44.94657478,46.14746235,45.10378243,52.62382995,46.44644104,49.53649304,52.16096279,51.57013424,45.79490449,51.00258038,45.5928211,52.05091353,48.22298786,45.21681304,47.44279706,47.1231004,46.17716988,48.68810933,49.64562355,45.30604815,46.79729056,52.03625583,46.83842569,46.77426535,46.15694546,57.68948549,46.52451971,47.04986655,46.68484042,45.83444399,46.92013848,50.31799984,50.44815425,47.17534115,47.42497689,46.74654316,47.02676013,47.14016334,48.35408755,46.2490284,44.38105058,45.06666218,48.07094476,49.3486417,45.11892971,51.96853183,51.70414147,50.18351039,44.72024371,49.12140999,50.89103102,45.37433072,45.46854981,47.55588059,47.10208015,47.49709949,46.35211542,52.65425439,46.49700546,47.55609824,47.27957323,47.30559023,47.25580726,48.45626067,45.83543268,48.03365394,45.70671312,45.95813613,50.28224276,48.55430644,47.57493516,44.61431237,50.69570499,46.1829343,44.19076187,46.73128798,46.80732931
0.686448539,0.745362832,0.75464304,0.68010481,0.541238684,0.62981976,0.648785622,0.695918295,0.854693029,0.826365132,0.652942605,0.733850021,0.90212533,0.892160479,0.822439089,0.680789928,0.528998102,0.714880583,0.735097852,0.633995174,0.664997681,0.686020215,0.640007934,0.854555386,0.863172933,1.030927413,0.926079549,0.726533557,0.648108091,0.690194064,0.508228117,0.572521809,0.788003176,0.691347797,0.635409261,0.612863166,0.560388522,0.797570718,0.654911909,0.583026599,0.570105476,0.804864766,0.850838219,1.217041722,1.113132891,1.075709707,0.82691527,1.159045463,1.117771114,1.117555346,0.997609729,1.022993262,1.037908846,1.098612289,1.112661443,1.194191926,1.023598449,1.094842966,1.014371555,1.105910651,1.128326398,1.081865638,1.073022018,0.947428421,1.020698149,0.937922706,0.866730777,0.923388581,0.936899766,0.916206266,0.769013148,0.686807003,0.879032896,0.836966215,0.590698046,0.470025953,0.467172492,0.503620403,0.47052929,0.465253921,0.393758153,0.434788827,0.391337926,0.440152112,0.44641865,0.426054443,0.534916601,0.463500073,0.593241626,0.464915674,0.421630214,0.45684959,0.427525412,0.541888423,0.484521109,0.428982666,0.557673929,0.414387849,0.472578881,0.484353948,0.507854249,0.506090877,0.498094784,0.36874921,0.523430304,0.345223365,0.440818237,0.368391751,0.714843976,0.614074281,0.649668452,0.731097711,0.814217921,0.740809453,0.592943337,0.535287832,0.429625309,0.638235834,0.540181904,0.447057871,0.54571974,0.415697521,0.628079742,0.692786267,0.641353312,0.525509588,0.543002805,0.589282264,0.531325723,0.673451283,0.454624995,0.572729315,0.662837469,0.60867379,0.628676474,0.625419385,0.545558537,0.471617322,0.695199305,0.54485316,0.55659861,0.554528445,0.74953745,0.590452873,0.504673017,0.777255236,0.467543363,0.527646738,0.374179845,0.547328263,0.500886252,0.414579138,0.371273598,0.49396791,0.500647225,0.451267384,0.58214534,0.469424606,0.505261288,0.477114741,0.424435,0.452138326,0.426989463,0.401099896,0.552647811,0.49031491,0.608937478,0.610805584,0.461407716,0.393851244,0.401996793,0.496766213,0.431444605,0.456058766,0.438615561,0.567834483,0.656590817,0.43100375,0.409026135,0.426885873,64.30439693,59.62238191,67.29402948,69.28015982,65.66791354,51.12898732,55.8724185,59.73101633,81.67008432,60.07436552,72.02058701,71.64952326,61.5641497,58.94949206,67.53382343,60.04393506,59.25036859,64.20046866,64.81385457,57.48131507,65.47360119,57.46143428,56.51266006,64.80561185,51.23386366,54.02349763,61.35706128,60.0604429,55.65776499,57.71992932,52.48920513,59.08764933,68.2392647,63.33287043,63.66438264,55.28109426,57.54403235,65.20766456,56.43503481,55.45894287,53.87092304,54.52466602,51.95729092,55.39710426,57.57339648,56.58729005,55.11178869,56.37903965,50.17935474,51.07510005,48.0921807,49.25035394,46.76712622,49.05702016,51.48492002,50.05051299,69.57908826,53.96666117,58.79340986,54.58304166,50.47334512,46.25690085,48.51974993,47.49680725,48.6934717,45.62656352,47.88474785,48.60881636,55.4325711,54.93703057,48.35728997,50.51008989,53.77938249,51.6010067,61.43961447,58.78736091,58.89689062,55.71195319,57.06951137,54.85615375,57.9356681,61.86107642,55.72342482,59.68908776,55.75216945,59.14126487,54.54233088,54.33641713,55.53829712,56.6665684,59.56252373,56.43697105,55.10927159,56.50523032,55.50789836,52.59581189,56.65987204,56.5192665,58.45329623,56.29542304,52.6360508,64.1564499,60.05938531,59.0993205,62.98698562,57.63136667,54.49936332,56.04408825,55.6546779,57.04350486,63.09928261,58.25004627,70.24644308,60.73886626,56.48318188,53.67401535,55.07706025,65.13965393,69.67480731,54.56871032,52.57915931,54.2443688,67.68540815,59.98100321,59.62619362,58.02673083,62.29130381,57.38127884,59.31387541,57.27343809,61.95878856,65.53073073,53.67848897,55.47221911,58.69866755,59.95095113,57.94715384,61.48853974,56.63626921,56.61082489,62.12149834,52.85843184,69.70703133,55.68049627,55.49384276,69.20796789,53.08900448,56.14080685,54.78231631,57.79838216,58.29158056,52.90658849,56.86353155,56.54092408,53.2172836,54.92291245,55.46285902,53.79076902,57.48639011,56.21297,55.59785515,53.14220367,56.5876947,57.3542679,59.53105435,56.91969418,57.98847467,56.19157916,52.51102597,55.88754285,56.53632903,52.04676111,76.78001299,54.89825843,56.0441883,53.12755001,55.35225846,57.22349527,62.63543912,55.06958689
0.294232287,0.297221511,0.393045085,0.425129747,0.45450259,0.509544192,0.470936469,0.472955652,0.376636239,0.4035206,0.484096622,0.498480152,0.654225917,0.498760058,0.3857397,0.365200524,0.451902689,0.42635007,0.428844826,0.64048446,0.75872843,0.693878863,0.6974282,0.708869362,0.575861577,0.469812804,0.570850762,0.627694329,0.521415011,0.610128243,0.50387057,0.741720437,0.635158777,0.767363556,0.650840443,0.827337899,0.790727593,0.794039357,0.825667835,0.858453222,0.834510844,0.725805375,0.734598174,0.777566074,0.727185438,0.846793898,0.829970452,0.798142999,0.751288872,0.596224624,0.576863849,0.665911003,0.466221731,0.772493491,0.962457916,0.860675481,0.819841321,0.795442859,0.860325609,0.809540942,0.877107516,0.960165567,0.741034965,0.802827025,0.75662896,0.984467718,0.818070052,0.865499947,0.67257136,0.509296642,0.520736948,0.602791467,0.627966372,0.432747096,0.449701116,0.487554353,0.490295072,0.565851495,0.560886502,0.529220232,0.451989858,0.385993451,0.436136854,0.398165062,0.380179583,0.302961446,0.48556642,0.388597378,0.334410688,0.320435014,0.335110395,0.360502806,0.33507963,0.413621039,0.352414418,0.352457177,0.353640213,0.354517596,0.322636876,0.344450532,0.338714909,0.349015138,0.336957285,0.333673814,0.338791816,0.323587484,0.379308838,0.401003281,0.334936793,0.356549143,0.31166464,0.307252701,0.301848783,0.305832461,0.338722875,0.311470707,0.418755226,0.383828719,0.302041451,0.335644865,0.27182362,0.273780476,0.258209576,0.266453671,0.261242654,0.282226861,0.308163376,0.298437685,0.245109126,0.234760666,0.296175423,0.391544338,0.616887206,0.42766974,0.538507337,0.76172734,0.494371938,0.558891262,0.612954479,0.841801502,0.747048094,0.729434647,0.813442948,0.657037519,0.634129791,0.573175436,0.491896601,0.496571213,0.548756428,0.591252359,0.666869144,0.816311341,0.834947258,0.679737713,0.593522815,0.626652673,0.53929529,0.50198182,0.481820137,0.413046315,0.433973706,0.435120447,0.428620951,0.309797981,0.429788162,0.334229244,0.296180941,0.335876818,0.272882285,0.309435055,0.201822881,0.299865599,0.304304155,0.247494881,0.316085706,0.233764887,0.310224409,0.295985507,0.339445712,0.305670651,50.34263412,51.10254266,57.51063187,61.42092958,55.78348063,57.76207435,65.78745539,61.4792299,62.63415576,53.34385939,57.16582481,60.64563595,72.37455187,81.16317133,75.33726504,63.52670814,58.69212863,77.54714907,70.10429889,62.74245162,60.39938025,49.41468495,57.50588045,56.59783973,50.46897945,55.44335688,56.37195492,61.45082476,59.38067777,55.24497855,52.30472789,50.37559675,45.94769937,49.54733141,50.36233105,50.48331517,47.49770155,50.68251116,49.43696677,50.72443878,50.5332635,47.1890956,47.11549181,48.69839547,45.96906388,55.29600987,56.01253885,47.13339219,48.89992687,46.9586007,51.50404077,52.66754635,54.10253647,51.15328136,49.54813929,54.33337578,53.11901437,58.10589079,55.61486513,50.83396114,49.85912364,47.79260708,47.5326578,55.39731184,47.22510073,53.0168518,53.46829925,48.27389722,51.2231477,52.02458462,51.55264483,72.18593178,79.95189892,126.5613971,112.456672,111.6946064,124.9440265,137.4857274,102.950115,109.0102397,92.61730685,71.89397531,111.1994852,113.5084791,71.53849196,47.62589779,101.8165081,92.57987526,70.78616396,54.43715623,52.44261311,54.17001274,80.92426674,110.3215016,53.11579271,56.54271584,77.98188128,57.21451974,54.43644154,87.00959043,54.98392577,72.14489805,66.22931487,93.46113622,56.28593711,62.20016062,59.27189631,59.68010704,78.83357475,86.61054641,89.62070153,71.50230669,63.72798728,64.43876001,65.79507527,60.90787655,69.84579005,54.31471107,53.32641065,54.27774027,60.61868436,67.51233744,50.22193278,52.67747901,58.02857376,58.77958265,52.97437774,51.8796323,64.49444456,55.78441445,67.51770272,59.4588678,65.3655105,88.93011883,67.52250711,54.1472565,51.74701996,58.73839444,56.17097777,51.1043834,51.78703788,48.06361617,56.63738278,53.89070692,61.65888884,57.96260811,58.61401692,68.13126059,71.51184388,57.80139927,53.42939289,63.77226987,54.91951538,58.488456,62.57820456,60.38970272,58.9556027,57.54985904,58.2357431,59.28125007,55.06572112,55.9794528,61.28364535,69.16165384,60.10478343,58.34548046,60.22244141,59.92401378,55.10915434,64.90571907,63.51643362,60.96506016,60.98167797,50.38124456,57.00882939,70.13039813,79.63447056,62.40912506,68.37279794,54.98078848
0.301980104,0.274511071,0.312014627,0.310818877,0.318550124,0.289254691,0.388416403,0.495823611,0.434780162,0.35482691,0.315758049,0.293688908,0.425749108,0.436248748,0.596387997,0.748534808,0.804963609,0.647957427,0.708054679,0.452123151,0.445250228,0.49093377,0.341735489,0.480328555,0.491659271,0.329298745,0.36018208,0.287403618,0.297675419,0.343926878,0.284068961,0.379307305,0.474289599,0.598004753,0.350929772,0.43287924,0.341573065,0.43915509,0.581293696,0.477443566,0.436418259,0.541164682,0.413917742,0.305247413,0.278592377,0.384595693,0.277975065,0.346106769,0.374828432,0.336605352,0.285598522,0.37341834,0.487291757,0.52012131,0.55450604,0.500716712,0.468560233,0.512232544,0.5206202,0.411364318,0.450917324,0.395650987,0.362896161,0.3978436,0.430480996,0.54999134,0.512717812,0.535255293,0.313632759,0.298100838,0.314352278,0.355314714,0.415547077,0.365671661,0.381161623,0.476908122,0.44864333,0.378036632,0.393787601,0.319743381,0.425903129,0.35435952,0.363399222,0.42048515,0.482794895,0.377505348,0.265389692,0.385611514,0.501807838,0.466253004,0.510813231,0.540387445,0.52172873,0.477909578,0.377641213,0.44241984,0.395361239,0.339659373,0.375203863,0.455091854,0.496953641,0.510884622,0.476516491,0.474199157,0.595934839,0.593214838,0.638566241,0.582219338,0.466428177,0.420683225,0.380152956,0.380030224,0.518270942,0.537275741,0.412770556,0.477584735,0.614737686,0.685222495,0.58071998,0.544834538,0.485458784,0.579176715,0.533412226,0.49706901,0.494745052,0.453138145,0.542467025,0.52838696,0.571415721,0.488386717,0.602012633,0.559774792,0.570635985,0.514564269,0.561674285,0.567268045,0.475837836,0.53811487,0.510417791,0.504076861,0.552224565,0.562365453,0.693368558,0.587288348,0.543125348,0.511579153,0.562730655,0.469142995,0.638997436,0.568695716,0.579439114,0.474101536,0.530275436,0.548540942,0.562364808,0.418765692,0.585442378,0.567659704,0.521255766,0.537628188,0.553449266,0.654968497,0.609622595,0.662321474,0.571844543,0.613158855,0.670936313,0.562174259,0.653925775,0.731408745,0.62826375,0.694522224,0.645804317,0.664132936,0.68170585,0.820786476,0.772833524,0.716988096,0.673587727,0.764211257,66.08756956,56.79405449,53.07382143,51.46339396,51.27518371,48.6600497,54.16687933,52.02233042,49.52778213,49.70796554,52.06460654,50.3808266,67.32741414,51.20510278,56.07753297,53.27754369,49.13573164,56.3196719,50.0023141,62.69066349,65.82021981,59.24946992,52.7682024,59.89415616,54.83070298,59.51412627,49.06355407,49.91656327,61.64773723,60.20694254,54.12138771,56.38035706,48.13880663,56.52152842,61.84758029,58.03853903,53.94399729,66.84765999,50.69852246,57.99429282,50.6795104,54.28636131,65.59671533,52.74875316,55.48407407,57.00165449,48.55388497,57.65797254,47.73159123,52.83521999,62.22609885,49.41793291,47.44831793,50.9409754,57.39013991,48.10515092,48.63539015,51.40276731,52.57964747,52.44940086,49.28088507,50.76637035,50.29368436,49.62794285,47.78350778,54.30857733,52.33422183,48.38561116,55.41511278,55.72799478,49.40636872,51.70572614,52.4674353,48.52051962,53.9137639,49.41957584,52.16256646,51.82161329,50.29726929,52.22206063,53.29328805,54.54381021,56.45332408,52.10986151,52.97552263,75.42024697,52.6746238,55.66446292,49.92906046,59.35382587,57.63074076,49.37767386,49.59426026,50.41455075,56.91521729,51.65090006,49.35626061,45.69248894,47.38838179,48.39873488,49.16963123,52.5441937,54.67844909,49.302151,54.52526453,48.79595465,51.79770599,45.86067371,54.57176915,52.49001937,54.53789416,61.36042995,53.28015267,51.65931765,59.92769515,58.13952219,55.2888481,52.07407884,51.45426324,50.9912522,52.61480776,52.03513355,59.19155329,59.61931226,50.3314329,54.38117679,53.70112201,54.38479164,48.82202727,56.04414807,48.92290019,46.24901479,51.98427357,53.63006253,51.22408628,49.40654429,56.50522378,54.59799406,45.14845215,47.66048929,48.59023618,51.30544836,50.23773204,50.122636,50.789514,47.2942284,52.36569495,52.51722779,51.8027903,53.22901073,51.26997319,49.66866895,51.12860397,49.24950746,50.58006287,49.44207432,53.98157175,59.4186698,52.21352467,49.32434564,52.0042311,53.23405193,54.98572889,50.78989114,51.82334726,48.73534747,49.7976422,53.99278135,50.14292744,51.43289544,49.53678262,49.43971897,45.83942863,50.93561931,45.21844311,52.93836711,48.67340817,43.06284294,49.65360123,47.23986084
0.977487922,0.907939222,1.019824713,0.919322142,0.96212717,0.903570962,0.936645065,0.922526749,0.829495685,0.893565279,0.958850346,1.006808609,0.863276091,0.906666228,1.082237831,0.959419672,0.867709736,0.970245221,0.923560473,0.885377294,0.971551091,1.005288266,0.959754933,0.974548145,0.963856191,0.845736083,0.866960005,1.011141806,0.978025507,0.910131907,0.946726615,0.951752305,0.859660172,0.825750058,0.993705676,0.899760114,0.875590725,0.92614533,0.921214398,0.912103974,0.977658094,0.970926001,0.949314583,1.030383626,0.996680742,1.078548855,1.040961171,0.898938341,1.04649636,0.97586212,0.725413066,0.890096378,0.875821053,0.956717303,0.88968327,0.974917036,0.862243047,1.004692704,0.783798143,1.114871613,0.994044803,0.872689159,1.049948091,0.946040315,1.028769717,1.007076357,0.861105109,0.841293581,0.861490076,0.948045856,1.032835723,1.024249746,0.775923953,0.855474521,1.044923246,1.04373795,1.060929227,1.015102388,0.998583559,0.917517229,0.993827432,0.91948262,0.82667677,0.904415562,0.942572921,0.891062944,0.973630041,0.950556122,0.8990355,0.794133736,0.94945728,0.918015951,0.823670827,0.893819312,0.943004329,0.951151582,0.922688769,0.87220617,1.013433173,0.783642271,0.84202141,0.870508568,0.947683444,0.875114591,0.93098702,0.85964655,0.867859319,0.745470302,0.89437374,0.78213755,0.875623337,0.861173201,0.825581018,0.754832135,0.99206699,1.010556538,0.785667873,0.867855165,0.926719395,0.943245418,0.818970051,0.867832372,0.870570718,0.923130006,0.958084663,0.996276176,0.824257894,0.974549249,0.934996326,0.804647035,1.01461386,0.973656508,0.995211988,0.904532064,0.953212593,0.950964932,0.939562549,1.024815183,0.958926565,0.830829613,0.882767229,0.996628738,0.935184079,0.978792502,1.02279605,1.097956196,0.85552216,0.957830186,0.902831089,1.018165264,0.990415835,0.961186214,0.985029772,1.03086938,0.949143485,0.882296778,0.889281498,0.859312546,0.805923457,0.811790217,0.782723876,0.986390427,0.798759479,0.97489623,0.926623169,0.858955313,0.785803327,0.862868261,0.777223158,0.790000296,0.769436636,0.833000514,0.823159994,0.88945023,0.874109879,0.872504256,0.946684795,0.910703654,0.864573199,0.849495561,55.5436515,76.30823031,55.42073607,58.7626375,63.62202306,81.90808068,71.61549923,89.10132103,67.50981497,54.18692593,91.5689256,79.27538939,66.06159677,66.08180917,49.13109247,54.00566456,92.58050663,47.97647263,44.86839079,49.13524148,54.68489395,63.67720639,71.73314651,49.73462713,54.32643589,60.87563712,64.04944629,51.33566592,64.29397373,50.91243873,59.76925153,46.08165966,49.70745446,53.78675431,61.02751147,46.76322092,52.45183438,50.8490923,53.28441848,52.32762257,58.27267111,74.66040685,65.81164145,73.17037752,70.68608916,75.04383832,49.98131773,100.1271255,87.18688795,65.85814952,72.27907755,90.82583689,85.12227297,78.62543902,85.10557959,66.42402425,71.33298092,73.23692583,94.99009292,72.02403287,64.32161628,79.84717461,69.67740344,60.63786539,69.7277096,53.77581509,81.79678075,77.63450769,93.65942035,51.06510562,55.92958434,59.35050004,61.11408825,73.67731537,63.8409276,53.89240558,56.00459574,46.47199264,49.94116529,46.88466396,72.96155209,58.33776208,47.73895111,55.5440172,47.91616689,52.86086612,49.49267419,47.34419,48.34538459,44.31840544,46.20965639,45.03967042,43.38707797,50.82991838,46.71282741,45.61219326,49.85792382,44.88682154,48.8661593,43.59295063,44.61479372,45.98195519,46.41812248,45.30492602,48.99705379,47.84032579,43.34800043,41.68981804,46.89350157,43.23419213,44.95488361,44.25089364,44.42683319,43.36702238,45.32970572,50.54410063,43.33675737,42.76158401,43.27595883,46.55033159,44.8069857,45.80105138,44.37932019,43.15615997,46.20348053,44.04752736,46.43509836,46.40077541,44.60684496,44.67561625,54.39557178,47.62279901,46.87868822,49.20889567,46.9582538,42.01633524,42.66841972,59.92544408,47.10256032,45.70694842,47.59489618,49.59629628,50.97134654,45.98863601,48.22288292,54.03801766,46.65970905,46.95454149,46.87998669,43.50308992,42.79073632,42.93370115,48.72083802,46.80216929,48.54071813,44.51786602,45.40790412,43.84191451,45.80655842,41.79173447,44.34352056,42.54166005,43.93017182,47.6180687,46.98192933,42.33478476,41.87628874,45.40173378,43.6327198,49.4343447,44.86667064,44.13368738,44.40955509,45.34736072,44.69434148,42.52426641,45.23306158,42.81387826,65.35744329,43.54778909
0.961916663,1.015118118,0.855073335,0.904943884,0.93503116,1.040303601,1.05968721,0.868399315,0.90918856,0.84186194,0.899597124,0.850844213,0.86965478,0.794932707,0.856676711,0.761354304,0.830681453,0.810584115,0.960009864,0.723451318,0.840481258,0.880535513,0.782521635,0.782621058,0.916969905,0.943541621,0.861860948,0.82273769,0.878252987,0.965129522,0.89101264,0.909537755,0.853962532,0.914556556,0.93376102,0.999627971,0.848871789,0.873780806,0.907980575,0.937748126,0.958428702,0.80678179,0.927440115,0.843858433,1.044610469,0.990973578,0.911976859,0.792265837,0.948104313,0.751176836,0.990061239,0.85556237,0.89523616,0.876681025,0.927614102,0.867342126,0.884771809,0.879943767,1.018667265,0.87001129,0.867960228,0.79079525,0.95173689,0.733574296,0.773483917,0.62495257,0.701959742,0.734277232,0.757701621,0.75935204,0.838773958,0.900602297,0.926331893,0.724359899,0.869460855,0.892578027,0.879509905,0.793680399,0.734083144,0.882681611,0.872740131,0.967524256,0.885698467,0.965869673,0.917062442,0.863859159,0.883183088,0.84352529,0.764376118,0.745160923,0.770980862,0.772821263,0.846433887,0.832431604,0.758353998,0.788807728,0.678216841,0.805158962,0.89267088,0.905850564,0.99845068,0.869793846,0.859437765,0.871714968,0.820732474,0.852899723,0.88964817,0.902028912,0.788224087,0.853990602,0.88325165,0.76052538,0.814845883,0.801237106,0.824172035,0.816235463,0.804973834,0.755388777,0.803312943,0.908719748,0.727097179,0.800234984,0.740273023,0.818376282,0.799111162,0.70050297,0.793996352,0.657598704,0.66256641,0.836683274,0.965907596,0.83134752,0.864756886,0.879700702,0.920856086,0.768107566,0.822960828,0.851972167,0.901118236,0.866996218,0.818998688,0.684034085,0.648395395,0.790211559,0.712074681,0.749466484,0.861291293,0.624683324,0.669778004,0.70386597,0.543524364,0.608122001,0.59688584,0.70336046,0.701140682,0.627488865,0.718190251,0.713566684,0.659558295,0.690946388,0.720912895,0.766686104,0.700435358,0.718716169,0.727568442,0.688514268,0.65161832,0.660924692,0.927134445,0.733267256,0.664210758,0.679414943,0.616005959,0.734632717,0.644862958,0.576753454,0.635982417,0.731938318,0.629477806,0.647889125,51.90533786,52.95798323,66.28470635,53.45177574,86.9443682,62.44167674,57.91395867,53.35441691,59.68452251,52.30013126,44.70167607,45.36220394,47.85757775,46.40207436,49.74086149,47.27023629,55.64287354,49.79068033,49.97057343,78.47025072,45.74354169,59.16525399,50.43681109,66.77267775,57.42365981,57.05709308,53.95681927,48.46304663,50.69917498,60.25868815,51.80652358,54.91662174,52.03866321,49.61583833,54.97324127,57.13269084,48.90432505,56.2750037,53.98617541,59.51008012,65.55499746,72.64059501,62.50762233,56.26082046,72.83611412,96.79582327,90.23492571,46.53095514,60.84232374,46.04860295,58.10933189,64.66929541,51.90105311,89.86653337,53.29120689,57.01076313,53.38240124,54.09437644,62.43773758,46.61802591,51.67065444,52.41995037,90.75769096,84.70431698,69.21713719,60.47148736,57.8508852,88.07902812,90.36538741,89.21578247,106.112972,51.42486165,50.19669038,50.31894643,51.77620005,49.1522262,63.44031015,49.42534554,53.83718461,53.75967295,62.62299106,55.18652029,59.90565423,55.35630981,49.59406109,49.15610621,45.69160662,47.94048716,41.44166614,40.37825581,43.45081353,44.58855834,48.06013596,46.15019948,52.7461608,51.46126769,50.48560546,51.04827011,48.238477,54.41652271,57.92896755,58.70609802,57.75609473,49.059175,51.16106896,55.48468706,51.79229032,49.85651118,46.27887117,52.17333552,57.9332709,44.48202337,50.95155296,50.19190739,49.20772967,49.61914897,48.7965618,47.96526532,43.60056947,49.87537044,45.97539997,49.69535974,46.52261188,48.64503951,45.5017965,44.31428726,50.77463033,44.52055896,45.34395479,51.83159118,49.00743848,44.73552085,49.92569698,50.66518877,60.13162569,47.81453514,49.92345167,46.30400696,55.15199446,52.20600724,52.48958843,46.68143839,46.90299345,45.38162904,44.61315816,49.21060615,50.47344159,47.80379053,47.97228491,55.7045161,44.20734009,52.30267744,45.43165172,42.5427031,47.4354329,45.55737276,45.30259096,48.65448787,45.61799316,48.69559502,46.71621122,67.31915013,43.36370376,49.11516375,47.83952193,50.77663122,44.53418531,59.47198237,50.67963302,43.96014931,47.23604499,48.33627209,43.89089645,51.24808846,45.61195748,43.92366828,44.43181941,46.41818828,53.89509517,47.21029889
0.39074953,0.424035794,0.410780893,0.540353934,0.949099463,0.882480734,0.873034377,0.91744972,1.070039148,1.128569294,1.030135612,1.163894807,1.122905943,1.07658293,1.119546179,1.088615256,1.018985307,1.068353631,1.042934905,1.036029537,1.174600612,0.800377366,0.856802945,0.960164908,0.926314331,1.177527014,1.119875469,1.103489063,1.073458994,0.997170156,0.989365163,0.861370303,0.89023452,0.814945325,0.933982328,0.800500669,0.761313196,0.850968561,0.882276294,0.878318516,0.959220449,0.902630517,0.872758887,0.896584149,0.835353693,0.787743765,0.833329682,0.978911996,1.024638943,0.908443375,0.955998916,0.893566989,1.058752378,0.873059497,0.783007019,0.852162913,0.775564183,0.869689787,1.003751552,0.975013335,0.761614906,0.94322109,0.953308652,1.097724715,0.974301838,0.895853408,0.928021715,0.809861655,0.743053052,1.084132366,0.801208184,0.984446417,0.991247297,1.031706282,0.86108582,0.928331532,0.90066554,0.783474114,0.91567906,0.856351342,0.830476539,0.805328915,0.845548473,0.932767253,0.917457939,0.948427391,0.832544447,0.896590859,0.931659544,0.771624703,0.819237801,0.800180217,0.849848497,1.005083232,0.97289643,0.928695902,0.936002664,0.865099757,0.9114525,0.86987889,0.8143004,0.927229041,0.909086597,0.885251961,0.858429856,0.887355484,0.863635606,0.779916016,0.829665482,0.814953258,0.821757982,0.785991486,0.822919693,0.722007681,0.781061226,0.8306563,0.808371819,0.813148817,0.852551024,0.750801528,0.921240597,0.922353503,0.815063108,0.807653613,0.823469486,0.969650208,0.77934081,0.874475899,0.915912667,0.858105735,0.81663611,0.804564075,0.839740745,0.613741361,0.640167831,0.52369283,0.600909747,0.641487963,0.666485256,0.504762504,0.562723401,0.531949808,0.789220202,0.683626867,0.680723285,0.681939551,0.622481913,0.777142657,0.603555844,0.809829258,0.63236224,0.784177356,0.704017954,0.639409988,0.593188621,0.814583335,0.849307305,0.903930363,0.724625583,0.667929896,0.633716542,0.701264258,0.705806914,0.765192611,0.760699976,0.825108031,0.794016657,0.798879671,0.833036407,0.789630507,0.792795326,0.787707933,0.80205808,0.796207927,0.75258615,0.924249594,0.798075326,0.780795122,0.955318139,0.837465477,54.52405796,54.60464647,54.50894125,115.1432141,43.11758574,40.58070635,45.95146741,54.27409993,46.60172182,60.48599462,45.00700795,50.41986395,49.7892764,50.57081167,42.57549239,46.46349016,54.2718181,52.29635286,52.82933775,48.22747403,46.16180075,48.38667726,51.29057876,47.21485421,43.31332428,44.67431616,47.03020969,47.82669306,47.63482232,53.75306989,47.22783948,49.77256494,43.11407542,43.33199262,43.19276871,46.7349355,46.49861204,45.95508329,43.81636851,46.85967177,49.04224558,47.98231273,45.03302653,45.05376668,47.00577662,48.06375958,46.68192704,48.05442012,56.70725131,46.65230146,48.00004343,46.57293835,49.78918999,48.46438532,46.44058464,47.62795622,45.47726004,47.51757109,54.88615085,49.59976974,44.85564426,45.22985372,46.40983483,50.49043913,46.96333113,48.71943125,48.58046968,45.36845814,44.16730592,55.35145944,45.58211724,44.26633253,50.7185019,48.36294668,47.4607353,46.26246886,47.73359513,44.66729566,43.99039433,45.66956579,49.23228158,44.5709374,46.90168853,47.5155533,49.70247493,48.43064567,45.93874377,53.22748305,61.66281935,53.43060178,51.83937853,52.65086289,50.90645015,46.57076746,49.33681288,43.8484543,44.70702992,44.56756927,43.68086884,45.90167151,44.21986834,45.70812782,43.4061011,45.41799116,45.12405779,47.82367223,47.86630757,44.02504885,43.08502089,43.41135914,46.02415168,48.25355442,46.33710433,61.93534164,45.86783798,43.24591274,45.8911218,46.78685246,46.45175257,47.0826539,47.38614004,47.18704809,49.59687422,51.04062857,51.48518397,56.18339903,51.96168955,48.01106529,55.05393739,58.81907344,52.24328105,52.70877152,54.01022079,46.54846756,46.61026675,43.19697859,42.02477902,43.51491586,42.29217625,44.24371331,42.98317228,44.35104707,46.8113341,44.49740306,48.30424279,47.87591725,47.06385536,45.98818968,44.21819659,45.92594121,43.93378651,43.80292657,45.55086523,42.63107127,42.07957547,52.92278119,45.22937088,44.76893161,43.05304858,44.0625664,42.06296386,43.84436645,41.48336206,45.7297292,46.57429856,47.75389843,45.24673153,46.34538174,48.1685475,46.96530575,44.34722515,43.1505823,45.12881313,45.58491051,45.26256804,50.00310904,44.26275827,44.39321269,46.49813667,48.52408103
0.367576192,0.364804976,0.425601851,0.435447768,0.708727238,0.684736145,0.738070143,0.715508333,0.748673764,0.701670729,0.689355641,0.691996484,0.730365802,0.783678857,0.851200746,0.956924265,0.842120563,0.732920088,0.87194553,0.744685878,0.696613867,0.680841682,0.669956683,0.661235717,0.646642051,0.62838032,0.621710525,0.650613114,0.645276074,0.60506868,0.655855995,0.647435554,0.641438709,0.594801597,0.67320354,0.55846858,0.761077821,0.758129751,0.734221322,0.763906039,0.800006434,0.737690294,0.685512674,0.746809201,0.6660993,0.639099663,0.635948684,0.77503116,0.69141571,0.613510062,0.588643794,0.655190586,0.672766501,0.720858509,0.617216497,0.743442524,0.730706175,0.656017709,0.577287944,0.597614958,0.711806219,0.650846381,0.61969738,0.637254829,0.614161479,0.64683072,0.686457615,0.649446536,0.592464908,0.626296781,0.62315032,0.699661678,0.637826586,0.621774549,0.687033494,0.581998884,0.579344376,0.623384504,0.64581425,0.638440619,0.654808988,0.627029567,0.748267331,0.721831469,0.761881472,0.819584601,0.675700992,0.680935154,0.844341902,0.809152465,0.787298103,0.835033256,0.93313115,0.870824212,0.807980992,0.813153711,0.7231124,0.69225124,0.760845187,0.745286399,0.724450007,0.811484184,0.800330548,0.708998848,0.708060955,0.729423332,0.682352134,0.701178475,0.717531758,0.705379897,0.695749947,0.784603226,0.707426211,0.783127044,0.746423096,0.738091823,0.671524927,0.756295334,0.763755394,0.667431399,0.720776211,0.682862925,0.59410804,0.644239813,0.788966662,0.682546873,0.653810489,0.762379174,0.729450704,0.7813354,0.641296618,0.666779793,0.715710067,0.729117172,0.667618048,0.644096225,0.587135329,0.612079087,0.580110255,0.615855957,0.680712164,0.789113786,0.684291745,0.707668146,0.74824048,0.566677414,0.586431472,0.768659694,0.82341746,0.758709404,0.671350275,0.694300238,0.617521728,0.80820894,0.767010024,0.755605482,0.740591097,0.729056072,0.723297931,0.736130133,0.704380587,0.704968364,0.714117602,0.714468374,0.648535621,0.752052062,0.660554576,0.672854867,0.7125,0.74659003,0.622377271,0.674205237,0.773543684,0.721356808,0.692487442,0.68073101,0.693076997,0.684361922,0.792535706,0.664742964,54.8775846,54.83818386,56.22133854,106.0087487,44.92356065,43.01615814,45.66254549,44.12884906,43.19850612,43.16078143,41.86963015,41.33192629,45.31312402,43.0498656,44.01013652,43.83068033,43.91615247,41.0660325,47.31109261,41.21624651,42.19044586,40.05980283,41.36051397,41.19781387,41.89910225,40.37669044,40.27405014,40.46342293,40.33390746,40.21927535,40.58127362,40.26701421,40.21009564,39.50423174,40.54482767,40.23694924,42.49268603,43.04939264,43.81825658,40.74385113,44.39586552,44.74471398,42.3506562,41.44855591,46.2932918,44.60314719,45.20377266,41.90399505,44.73237136,48.25679487,47.40823398,43.40972476,42.90747355,48.28989224,48.10966366,41.52466002,41.52876098,45.89673236,47.34715129,46.7024918,49.15863644,45.47430856,42.70988508,42.88249121,45.49923855,47.80634947,47.14109754,48.55736779,53.99030513,46.56400969,45.82775593,46.50855294,42.59937655,43.49926226,53.43363394,49.66082576,49.98027371,45.57429907,45.54970422,53.84870857,48.72793768,46.61060478,51.83119907,44.82215831,44.28357069,43.2819761,41.17322801,40.08702514,42.78688157,44.13175448,43.81467428,48.61347622,52.06382003,43.85455276,42.16038086,43.10739518,43.36846398,46.13343254,42.88640722,44.4566908,44.43289427,42.16521202,45.56272187,41.58028309,40.98862814,41.1360536,43.4364675,47.4747722,44.31607136,44.17797128,44.08150131,43.3048633,42.68852117,48.11039372,41.5866451,44.53007004,44.78743064,44.16994337,43.16665595,43.68805043,43.01656131,40.71486431,44.3615806,48.16150376,43.05414028,50.28852222,44.54461629,43.64818435,49.7101331,41.93347685,43.21536966,40.69096098,41.25488962,42.97935734,41.42554451,44.96229535,43.61188374,46.70107896,48.15821302,43.57248989,49.00815262,47.66978235,48.8787809,46.75867608,44.23649524,48.85921112,49.83087712,44.0761595,45.05957047,43.53534316,47.55836335,51.89756781,48.51437155,46.1007209,42.1916243,42.82071619,42.86799547,44.54866241,44.6614848,40.49213667,40.1913091,41.7078967,44.33484891,41.35067306,49.4100456,44.94367637,45.873466,45.45630656,50.36157566,45.55154384,48.63475197,46.00911922,45.78275535,45.28334028,54.15113849,45.58921833,44.95905461,46.12269145,50.24142359,45.22330834
0.344169725,0.337923188,0.513138029,0.537752323,0.496621839,0.461029961,0.485067943,0.544578844,0.495917017,0.520739248,0.504512716,0.526345684,0.526185133,0.532939841,0.519409248,0.491962221,0.527685252,0.448393154,0.515089044,0.550558379,0.545576387,0.506528908,0.558931891,0.472669974,0.545467272,0.502925678,0.494065864,0.599306199,0.458306415,0.519124427,0.507966508,0.513726636,0.585540272,0.568045541,0.614986597,0.482613016,0.618586562,0.531836047,0.445258113,0.472902537,0.477379733,0.474516775,0.437338223,0.412286603,0.441840545,0.451135203,0.463309568,0.474049607,0.510247535,0.492270655,0.436443798,0.432261593,0.415710083,0.511564134,0.549044135,0.438507226,0.468860691,0.465452535,0.488021151,0.445894813,0.551043656,0.581358417,0.4767622,0.527341952,0.638706106,0.532670252,0.423708637,0.475996786,0.474479176,0.453085016,0.496614765,0.6187714,0.574772037,0.47567332,0.57490897,0.65688571,0.442010788,0.518549936,0.531277679,0.453857475,0.438332921,0.453409479,0.587340882,0.563154187,0.464279486,0.464056568,0.495263224,0.670848457,0.601730649,0.45341688,0.469643738,0.475115795,0.485882526,0.459137487,0.427575927,0.407852544,0.456649769,0.457449157,0.455568766,0.516591646,0.492671338,0.439881819,0.44308819,0.466326115,0.432244507,0.43207129,0.53472553,0.552454862,0.508855575,0.514872257,0.544489823,0.420496209,0.496523798,0.442715401,0.543552832,0.449974796,0.511439682,0.701778093,0.65617179,0.524381213,0.529219721,0.468857345,0.463379798,0.499162383,0.495699139,0.467038098,0.48850345,0.494094536,0.490116833,0.48520738,0.444763348,0.455281279,0.477086989,0.493984429,0.431529489,0.489275944,0.485902733,0.477080982,0.568200627,0.705644446,0.556384715,0.496399361,0.461520958,0.586368105,0.508225673,0.495390685,0.471778867,0.457019285,0.473848541,0.529614273,0.454169998,0.478948121,0.525540554,0.420668474,0.521313237,0.537746761,0.550047843,0.599145529,0.546731897,0.543066671,0.488007124,0.535234822,0.522247169,0.482742526,0.497380087,0.518424119,0.577221096,0.526181067,0.757710291,0.62208951,0.48855789,0.456974758,0.517862807,0.475036307,0.474473586,0.452571108,0.449149864,0.486637373,0.509808918,0.458118533,55.24222944,55.22687694,66.98135325,50.80503093,51.93609941,49.64827474,49.22386136,46.16464667,49.54244625,53.84651803,51.54253498,50.42204045,47.08606815,49.28980691,52.28960296,49.28580684,51.20348142,52.80684804,49.95375343,49.72414292,49.41591689,51.63327,47.73423773,50.80828614,52.84768229,51.14774262,51.75797969,52.46133935,53.14459408,52.30809638,52.03144468,49.57251795,46.61587884,46.30123647,48.41727179,51.79598321,47.28240482,49.04675594,49.67006421,48.39404872,50.26618205,50.51781804,49.58617508,50.99678056,49.33062168,49.91849027,51.34079921,51.32649719,48.12978019,47.04366235,50.2061109,51.6030851,51.75349506,50.29474774,49.98585551,50.51426511,52.614909,52.00906311,53.12232395,51.85552491,49.95566224,51.08272651,50.84343449,51.82559454,46.82868594,49.92830416,51.59248088,51.20565783,51.97551905,51.14791093,48.70217061,46.71141482,50.09955759,48.66273645,46.00797743,44.67904677,49.40545728,46.0805472,50.41144687,50.88729093,49.39408416,49.89552352,45.75975682,50.00844027,48.66782421,54.61619089,49.01043128,44.38245759,45.03336035,48.8158751,47.55277056,49.36620324,48.01385564,50.63011917,50.44461288,50.88429702,49.35498301,52.10677402,50.63167833,48.01718316,50.55844354,50.62958516,49.70879405,49.49193911,51.52802646,50.80168663,53.22343314,49.21056788,51.08097569,49.21046138,50.10109946,52.59279643,52.50168584,51.87433077,48.72563039,49.78486755,49.09015759,48.82647548,45.04304576,48.92554549,52.33730997,51.41874486,53.203838,49.92605272,54.3548123,51.8754608,51.45252009,51.26957158,51.05817901,53.94784571,52.70016672,50.88957881,50.85323481,51.38674966,52.82866727,48.39940278,48.45742564,51.58751876,48.40630323,45.96229047,48.29825647,50.58431244,50.70043566,50.46587893,49.85250771,49.81366424,49.52685486,51.60583986,49.51530857,47.26411371,50.52918499,48.94970356,50.03200951,49.77871418,47.25279647,46.77386542,47.51968921,47.01508901,48.65789953,48.27259166,50.05839475,47.4740731,51.61133935,50.64938671,49.70710726,44.78567655,50.34856895,48.93708265,53.38449343,48.46132264,50.75929269,51.2536611,49.18179187,51.68388192,51.61050154,49.74850383,51.12092268,55.26824247,53.42794509,50.68158479
0.334872625,0.329778072,0.419857458,0.840499033,0.94234571,0.850359663,0.880537465,0.840504243,1.107046165,0.899558548,1.173347743,1.061995254,0.958024533,1.004032866,0.79614615,0.951008318,0.907772161,1.051969749,1.077258902,0.970001592,0.943276868,0.96866524,0.909951191,0.999631195,0.829823641,0.911432201,0.888710083,0.860661913,0.873771682,0.926428385,0.942141807,0.944152901,0.988973372,0.927236701,1.025629524,0.859653949,1.076429272,0.934338219,0.925444577,1.010282912,1.006374183,0.832546746,0.804110234,0.933159453,1.002572212,1.032290687,1.12275057,1.03544795,1.074530808,0.823778997,0.779613517,0.855896923,0.834171764,1.021309816,0.879995763,0.820516905,0.882975983,0.981494828,1.046102812,0.890667822,1.114487346,0.921107943,1.00315149,1.081243237,0.840752035,0.825242644,0.923029734,0.918314601,0.794728297,0.837448818,0.869061294,0.732656694,0.925414288,1.030751505,0.973648636,0.857423064,0.882067311,0.798830902,0.907244955,0.891360281,0.903776977,0.772486179,0.852316777,1.025897335,0.934897282,0.925581601,0.961431728,1.038775405,1.006678598,0.965512434,0.876613709,0.79614375,0.96686322,0.88629689,0.909757333,0.818785388,0.803134942,0.932529095,0.963636852,0.995500528,0.982548771,0.981826611,0.794032214,0.897516545,0.877406677,0.897287087,0.900869498,0.857139031,0.850908439,1.06600343,0.830298658,0.741984167,0.787080853,0.838474077,0.804558986,0.849313296,0.775699896,0.928182802,0.883321018,0.860546545,0.964078166,0.832534138,1.107931393,0.769108587,0.993200146,0.889315082,1.06335656,0.968251838,0.935197785,0.93316877,0.897563025,0.930684403,0.961992504,0.778673386,0.862367583,0.897007589,0.847269594,0.887329938,0.935864721,0.968197655,0.827602224,0.963535483,0.956058089,1.05263711,0.978485579,0.887108007,0.992945424,1.009504922,1.009402915,0.930730447,1.024742809,0.904598955,0.96472486,0.971009868,0.960793292,0.987936403,0.823535133,0.810301088,0.646124178,0.796922674,0.80621465,0.875745665,0.893178096,1.021361951,0.937746007,0.918921966,0.834790661,0.979169644,0.981465948,1.012376799,0.929453067,0.925742003,0.953259259,0.994829939,0.934694719,0.87504252,0.930001029,0.990394587,0.923907526,1.00593869,54.77177172,54.68090182,54.91769533,63.12231846,44.47056491,42.87621855,43.4745879,44.13748042,51.30715206,42.85223876,50.57365224,43.20688608,44.21950216,51.72940116,45.88530671,49.69814653,46.1672699,42.49570152,43.22429756,43.29940211,43.77763322,43.44621483,50.79042971,43.97115998,44.41337568,43.3229187,43.32106503,42.46399389,46.23960244,43.4493911,44.86892266,44.60449233,43.59897096,43.01674223,49.70584094,43.98882345,47.12472147,44.11785304,43.07874569,48.07692207,43.96093321,44.0752212,41.77871153,43.94165052,43.68436144,44.79471445,44.3319131,47.48792843,49.33531018,51.32704299,43.8082997,44.15503306,42.72139989,46.29781436,44.34201927,49.96618232,43.9536086,46.41110402,44.98672468,43.6541401,50.22877503,44.48538331,46.39269694,51.32968449,44.16990739,42.30709959,45.88637126,50.18618621,42.51039915,41.52696895,43.47827559,41.495441,43.77456532,44.66331022,45.20277411,43.29249622,51.82548337,44.09335946,47.62909273,46.51769663,44.42334144,47.26994508,45.37228551,48.0950741,45.96731932,44.76638365,44.24895128,46.50130413,51.86044833,44.07710691,42.47042224,41.17635126,43.22550359,43.99566983,50.45931487,47.34235893,47.41721687,46.15774833,44.63974664,43.35091986,43.28621123,46.71245139,42.89723785,44.13283854,41.81547321,47.87368167,47.86373157,46.19040127,45.58605915,55.4546363,42.48711793,43.70011096,43.4640597,43.96777476,43.78866184,42.41879137,41.10378024,44.04423602,43.97021343,43.66791708,44.41005586,47.91536158,47.40676348,50.37063325,45.55360879,43.46715784,46.68841979,48.19732725,44.12260554,45.86495566,42.2423288,43.0590803,46.5166712,43.65576601,51.78374409,46.26207026,48.54975666,44.67809062,47.31001362,45.20081586,47.2108182,44.22916679,51.38580346,50.76782175,53.90138118,44.11769392,51.4337342,60.49361639,47.69868771,42.97383821,50.27959873,51.8960871,44.83999477,48.65816957,47.56482702,48.09091916,43.1089968,46.18250079,43.26935492,47.05826482,43.35042682,41.49023334,43.54257965,43.49963481,44.16977512,43.99637842,43.63882775,47.81588047,47.12481579,46.89286828,46.66512043,42.88449893,46.13928441,52.72494985,44.19756896,47.88512382,44.80177588,45.77180739,42.80559284,45.81689786
0.354809374,0.439877989,0.292476642,0.704237339,0.733618886,0.901665883,0.854672043,0.908195884,0.70972869,0.814179261,0.695221859,0.842427546,0.737710354,0.629733675,0.788988785,0.723479758,0.754888953,0.580921225,0.660562206,0.645877767,0.564405779,0.70184255,0.71386093,0.742933055,0.735655995,0.579550936,0.564080092,0.451150371,0.638354916,0.740750881,0.613857644,0.6426287,0.690589745,0.518258718,0.739820327,0.633445045,0.707037428,0.616843435,0.506999025,0.72505489,0.538781447,0.77382611,0.808584148,0.723803836,0.635181206,0.635723274,0.565317739,0.710038277,0.686978679,0.386349386,0.576999808,0.511425432,0.431439108,0.538157533,0.640558829,0.699516997,0.671954693,0.694859227,0.604194185,0.572627829,0.762001445,0.682859273,0.780991694,0.763481559,0.529301307,0.602501946,0.713790425,0.681737701,0.544838767,0.653988339,0.869120747,0.583344295,0.62467878,0.621329769,0.695119039,0.749714901,0.732939667,0.547688047,0.534605379,0.600431166,0.52030587,0.6123264,0.809685771,1.015148521,0.733845875,0.580768172,0.588333272,0.55500756,0.62480181,0.689045718,0.754448998,0.687004216,0.692148488,0.665513481,0.746505024,0.768603779,0.743463078,0.767433346,0.571864256,0.549438044,0.633402828,0.629831331,0.780544286,0.683587984,0.610423528,0.620889888,0.636250057,0.58620834,0.724472902,0.659448584,0.697090379,0.553017717,0.525074788,0.588798091,0.686453941,0.69329446,0.64089493,0.631132226,0.748038557,0.64700356,0.582687359,0.881948083,0.785199983,0.706362522,0.617715948,0.654039501,0.643172656,0.829914911,0.676885709,0.771260227,0.713055653,0.612164397,0.641678539,0.693415222,0.595314682,0.621199212,0.599979271,0.744319747,0.721587203,0.783411698,0.750041389,0.803742708,0.702490775,0.739651225,0.782177187,0.602246601,0.630975315,0.731351892,0.771953513,0.72196457,0.677470343,0.595492649,0.544755446,0.710122806,0.746873491,0.736610284,0.965242247,0.979688701,1.085749274,0.791538238,0.528508068,0.488194797,0.617444776,0.554931454,0.757400174,0.660591804,0.645068298,0.63456901,0.594402915,0.71711624,0.498741039,0.587890301,0.502645827,0.583751903,0.586011811,0.78840732,0.311171725,0.805299311,0.928054466,0.630674189,55.16013229,54.98453485,104.6390392,49.52270013,55.49590303,95.71081062,67.7353166,55.38043822,53.73836149,71.22257236,50.53632585,53.33846286,60.24630863,57.42759403,49.03629321,52.98338253,54.65907449,55.36944326,53.87349385,54.16302154,50.27688227,51.46923345,55.43003129,49.91687685,55.22505571,57.27086445,65.43298153,62.01691416,56.53513637,62.74113825,56.97634728,59.52869473,60.33101162,59.72336547,54.29489528,54.29397269,59.95335676,54.26776502,59.13190749,58.31311772,53.84888699,53.93238397,58.15267698,57.78689214,59.4858134,71.6611818,49.90350566,56.93111106,54.75833375,52.50685472,71.39019834,60.15639455,61.98318278,62.13458567,57.53787116,54.54722093,60.07725719,55.82342291,57.81443494,55.12434113,55.32530005,65.74188662,67.93620758,57.26697639,56.39023071,51.93317461,58.94330039,68.81199827,56.56932188,58.91287714,55.56717689,56.0930327,62.9342763,55.23634476,55.28729974,54.9725583,65.65388291,61.82219473,55.22658371,60.52202118,56.36557154,46.82094109,68.079061,58.66855009,57.244569,63.37954628,70.84950927,52.47016616,64.83259274,65.28621134,51.35548107,55.60187293,59.99070241,50.5405058,54.14875512,60.49981026,59.90572838,63.56619162,53.27867966,52.37682527,49.2582371,50.99947771,51.02749675,57.43245626,51.66374356,57.10156987,57.85779745,57.29008479,61.52205119,65.01541655,54.95684298,52.03625246,58.07837127,61.91634568,67.58822815,70.63179989,52.80623426,66.86294727,63.31434227,52.82035223,59.77004584,62.57939622,56.57370886,66.12284309,67.13643993,72.55317319,85.58527211,54.61359619,52.35285124,72.0011813,72.78382875,64.6112385,55.16908488,53.53468179,64.12878328,54.97726069,60.94175536,60.75981649,59.74082729,67.59048622,61.98990801,68.71543279,62.45679169,60.06802698,69.3384691,67.4068737,57.15037946,64.59167005,63.15255258,71.9839703,61.050286,55.5803888,60.48767124,68.65588564,69.01054309,64.13945109,64.12943269,54.76338143,55.39835495,61.95918286,60.65091248,60.07130385,59.5715852,65.24358465,58.84447991,59.2440096,70.886585,79.8276208,64.29753468,64.26856514,56.60400454,64.17091916,53.79750154,56.8174986,87.47286069,77.67658041,102.7093574,75.08264361,65.91329059,54.62003981
