16265,0.406662284615064,0.397309438258082,0.376529688036938,0.364530316911135,0.377219455647501,0.392066561318718,0.381804023038013,0.458690728140424,0.433155964700238,0.438341334596877,0.432618601203946,0.43166062388145,0.409670648997955,0.393724658606262,0.365798634885264,0.405386058460553,0.397095524581021,0.443560759760223,0.389022814430137,0.385148861831185,0.396682473145736,0.357732142320107,0.380223129796506,0.366231143334561,0.382284222463627,0.404514387964547,0.378584222251622,0.470231092309817,0.45136911950926,0.430913173547727,0.557992207336027,0.443354877100613,0.451277752978354,0.481067969661292,0.459562673506761,0.520227622216252,0.505859565178602,0.431346150650416,0.467986821387636,0.429558672949771,0.372289284078894,0.395425834084546,0.412187550674535,0.447346422162448,0.472921317216461,0.463708835246924,0.45213624746547,0.486740961990709,0.552222725993318,0.589653961406665,0.510591404301283,0.571400492614917,0.559810906080078,0.587742697262295,0.599570463207194,0.768339821092297,0.641738766844246,0.471322057086288,0.410202306901341,0.377578321040817,0.395099255296268,0.434639075896226,0.528153785111303,0.419676761765666,0.429614004135984,0.399503481029425,0.449232803291048,0.379817795398356,0.347889323127608,0.312041156660635,0.432057380930255,0.54436614337283,0.394313166839278,0.391189292977935,0.370173193359517,0.344430137515977,0.321223362218332,0.373529312139204,0.336094762650524,0.311730788995708,0.334235595829843,0.378987513035892,0.334473658853202,0.386194433787299,0.407698579722703,0.374738225350431,0.362013703066545,0.353071102832863,0.359564702115898,0.41674200344377,0.366471808324474,0.356186766884001,0.304975092003221,0.34325529635802,0.387440374288277,0.314022762200421,0.326888736951907,0.321669824963392,0.36982001273497,0.321865166402105,0.323409817521414,0.385268932090676,0.340644860002696,0.329891799253997,0.356446215666921,0.340901745048517,0.394317797705549,0.380867371719827,0.35490375285657,0.367405397789481,0.483345662211979,0.385417674088405,0.365224634406162,0.369657452796869,0.380025997409274,0.356878876001976,0.393459200434509,0.399091968621968,0.349244339988113,0.335868925896336,0.346083475525122,0.39645371917013,0.335457080139912,0.332251721719444,0.343914863433703,0.356819788481221,0.347124997004698,0.36836175018408,0.362258487663715,0.340691791275692,0.355700277119518,0.370132528145401,0.329173003304688,0.312770902205293,0.340025839096425,0.342368400173769,0.34401872458561,0.366048872113391,0.361601745598687,0.347778363358986,0.362850066364475,0.338935288154745,0.409500209533958,0.366753820958878,0.370416639533441,0.358653001876795,0.354617680912204,0.340239039514245,0.383402307557654,0.380800951935948,0.363754112164797,0.342942696986581,0.317438185384003,0.371200359636362,0.343400086130089,0.350937053797221,0.369475158320592,0.381627377428093,0.350138329275681,0.353427148050129,0.342560591803553,0.336733538602651,0.35176588992065,0.380322526871543,0.414376589107816,0.349148100981204,0.327722887192198,0.342118015895029,0.357961284319321,0.344930346104328,0.357008438976091,0.391761462546821,0.337549760410268,0.340379783376917,0.330036544167255,0.34299340350316,0.37038952724081,0.344270108485331,0.35875375841922,0.375786362595689,48.1103744793856,53.1506041700482,47.0271716117758,46.9751265945208,45.4113167531644,46.2700512600188,46.4012056779496,46.2932849132101,46.2237632587797,43.3575127439581,48.0097621427339,47.54710878879,46.1491632697116,44.8720381978898,43.6976488980041,46.3994516703901,46.3300233267174,44.5173016305258,44.0164879126326,50.9670553449946,47.6596860076024,44.1929157875728,47.1263432282113,45.7570660648584,47.0145406529003,46.7161839499481,44.545445481183,54.1762559048547,53.0218594111882,44.9565604004789,56.7697686915921,49.4438842432389,44.7419642639868,49.8363767791621,47.2825338297383,53.4872600976512,55.5156782575957,45.3957921360362,44.9621853580312,43.6679151349278,45.3398693236006,44.2041834504278,43.0404371686992,43.4338272760021,44.3250311296202,44.6712285188414,42.5788802395618,44.9738126273395,46.4209389120914,48.3435904832433,47.7628886095572,42.6609237604212,47.8597390475774,46.9770032012826,49.3618641372834,48.8279426769746,51.9276828595202,43.9119254956716,45.5043142047982,44.6184550354025,47.9723653184621,46.674504694637,66.2686899186909,48.0867246913775,46.33924282008,48.742486444434,45.8967695768618,44.7538198937598,44.9298795059407,47.5186781495564,67.5946099475334,73.0106306219749,49.1533609110859,50.9332127428138,50.6694219306297,53.2565047677096,50.9413514141636,51.0194225147226,45.1323678070693,49.1744753342687,49.692836755842,62.9950773134701,45.602631819095,51.6498897045189,47.435150337185,46.9524529917048,48.6002896293864,47.4543116551062,48.9395607153786,43.6693478471418,45.600889827436,46.2747869908258,46.2886691542842,44.9029900746382,50.1903626307272,45.3511207623857,47.3014623019793,45.4138500648982,46.8762743736491,47.1658268002062,44.4724643936711,43.9915339682045,49.0279705550284,47.3911878629782,44.6435434163957,46.5538392875533,44.1599408554116,46.9366439613108,47.8827921123214,46.9339735204313,45.8435309287231,55.2237046600537,44.6893518489409,44.8582120174903,44.5058811044218,43.6198949411334,46.1458417872674,42.5966352689526,42.0306296753964,45.631715658374,45.4323285662815,43.6497055804079,45.4766415124599,45.3930571576638,44.2762080029495,45.820232073807,44.333403449956,45.9368179758429,48.3886057735881,46.0775027790383,43.9957692669515,44.2376508209635,44.2054366684348,42.6338522971868,45.0476387260311,45.1287833457024,45.8115514358526,44.9294205055507,44.9134867343878,45.3222225048705,46.6078186340618,44.3032793707473,45.3494411265231,43.7667681919535,45.1287857962306,46.6910769041414,45.6959237064366,45.4562840433071,44.8233028249417,46.6971865376537,44.5489819497389,46.8454912394338,45.9532426566267,45.8173244485034,43.3102267952616,44.7625076983525,50.1262397088995,47.855057777863,42.688156206741,48.2276672890535,46.3297472864795,46.2298869594784,44.609642813751,48.8407641125726,45.8548999604533,47.8249085460824,44.1035796394331,45.8451165585652,45.889278003747,42.7895411210633,47.9875418106958,45.8978422754053,45.4112695519457,44.3355741074621,44.4843499057553,43.7494474565486,44.5488345326497,43.881360854964,46.2224517681071,45.6995004779868
16272,0.878319461429655,0.977546047677375,0.973445373047451,0.902100550916994,0.710026519642454,0.711947575935892,0.939504022002948,0.796519557376123,0.863893984093681,1.06035484462021,0.756713929573031,0.961942749985891,0.929445444503911,0.805590288323995,0.82246175883945,0.913792166792546,1.08008532729148,1.13178779657973,0.882253128498618,0.851864065668658,0.985440175784296,0.977855979420868,0.994869384222104,0.907700646300558,0.95532533063745,0.877822109389215,0.828477490286176,0.972776704059553,1.04126242093331,1.05715656722927,0.992295434501346,0.629891935426163,0.69166114359466,0.860995018110168,0.675713890642349,1.08668861567006,0.963999009183279,0.857822440018017,1.00720658792351,0.796246478223913,0.853063337402572,1.03721917585272,1.0810214262697,1.04496907218018,0.839906978918768,0.952691504533877,1.04037489187931,0.877235871400429,0.93622679956294,0.928182238845169,0.917308474608813,1.04843394540849,0.967160076861835,1.0071230884968,0.974046996187772,0.85507921523918,0.952991977448288,1.04809774934798,0.963745268601993,1.04257121903282,0.937500054502715,0.814864329675843,1.00999987582327,0.7715589318586,0.981250292986669,1.09614175637877,1.09504951731768,1.02289395834487,1.04277158518312,0.977576806864988,0.848927310559017,0.928990870543017,0.908277404390599,0.892128846756729,0.826012015703101,0.761953558546675,0.843515610254142,0.754207936977803,0.910280373155424,0.925348779766011,0.68428903328861,0.907363155515598,0.843164488533503,0.829390527023433,0.850773335079223,0.848782106156664,0.796005424015603,0.743017117433807,0.849290903386496,0.765901042783748,0.817077193647773,0.951828960600106,0.90962043301053,0.865431146654465,0.651143254580562,0.73974904954738,0.76475082519652,0.924469604758406,0.713627569174097,0.705773002454975,0.740848667249856,0.860974524391982,0.941272176817184,0.803534587768294,1.02239963052516,0.812178669597885,0.914598161043443,0.691236107249187,0.796129304474263,0.720941401427148,0.71703326498374,0.795859723980481,0.868305746563446,0.837107453006626,0.90281702553098,0.904225382070991,0.851434967911542,0.677347420383048,0.757054939010333,0.619060421455744,0.760105207262081,0.638538149378699,0.624212914078529,0.645798316565076,0.668852790089806,0.67477763866841,0.763067140275216,0.660233361770117,0.610953405200368,0.823075772084593,0.750166337501281,0.628998314045512,0.650058603155098,0.707702540341922,0.642326341380729,0.637059593686474,0.732822907672223,0.723991077063073,0.631824041895945,0.654451246629479,0.651665619677377,0.727396501300602,0.659755211227053,0.916465671150487,0.741651419256641,0.737894838136832,0.644760138862207,0.746864102320561,0.746442592139463,0.537853558058713,0.562467976702941,0.543337002120434,0.589376850735954,0.455891675654784,0.537464417895095,0.508043002792539,0.506907047938063,0.724393513260828,0.553017255635645,0.538829657953812,0.50559522514859,0.468110771067914,0.561369959769247,0.528463457110139,0.511405479591427,0.684112425881971,0.50889551992057,0.48997886662856,0.475919875692592,0.538929276101557,0.700596713393391,0.455262681534237,0.614074693452948,0.526587431496697,0.638303209036864,0.957143165225506,0.773701212153583,0.76491594578639,0.649794774623643,0.754874486622319,57.662114017249,74.9884218715814,77.7467924106228,78.0410972300633,54.0857625221572,53.4442098292864,66.8381765298567,104.840152245531,63.0948044897581,67.0692476887603,54.563403890181,80.6749878249811,58.973162339303,49.1095418071611,51.7011530042499,60.7237652864547,54.4814302774407,54.7814261782222,53.8898321482667,50.0254976594451,57.6029630729468,56.3273076061731,58.366875869848,52.5806824055772,57.7255426864529,54.2154033930646,64.9137048009446,64.8152028351307,55.7939119898774,56.9369852348881,61.2577183146099,58.5742974825881,65.5233115208324,58.6657739024276,55.8660264521923,71.3755543187183,62.5770795935111,59.1600316491934,61.3138456929183,60.5013640420879,57.3278240957593,59.8490255625511,61.945913962709,79.902877994781,57.5126604037315,66.9829642105749,60.3256261874906,54.2761676503984,55.2329567814081,58.16587321259,60.7051931613813,55.224624855333,54.3711470264871,57.0164502855015,46.7781801290745,50.2715823657197,56.9437086748807,58.0183045354403,55.7381406663088,48.4598654647523,52.382420445111,56.1923982715102,53.7570264098545,55.1401095538859,52.3928409131726,55.1165135989888,56.7813918697011,50.3422893265847,49.081498515701,50.3963428939428,58.5084777552624,57.589538673912,60.7664482208475,60.5835678687113,51.5351400042125,61.2854124522668,65.0827513606281,59.3557504275119,73.3055243242911,83.9955812326826,50.9121635135073,56.9651687134706,56.933011890788,55.3742071933225,53.9735948608226,54.8228968843119,57.9356139357586,52.5649320710182,58.3707854359401,53.8813398565929,54.1506899773346,54.6731433060836,51.725118319174,50.0885216042139,52.7886862322256,54.9530992330287,56.3001696680925,58.7227273965724,60.6885372717315,54.8929605206599,54.2871507916321,48.5737444795597,52.3619679296198,53.0102491765154,49.6365239428698,56.641480349402,52.2711439791538,51.8235396684764,53.7159360087354,52.0337789219954,56.5935253546911,50.4969632206469,52.0049625499742,57.4191500633193,54.1455629330271,65.1286341822412,56.1906066136512,53.2095606838312,58.6309698515256,53.7630095249394,53.7988266957732,52.5037533752787,54.0147419279582,54.5126024004786,56.8436892500623,52.8068488840543,54.377242723925,54.8843635868907,56.6051965525582,54.3300152011407,55.3526095323963,50.9475841296406,53.5197460341637,56.6570895549374,53.6580198718519,49.790441455086,56.626437383627,55.5321181422318,51.5355750215391,54.2650196947244,56.3045205820642,52.8552487747699,55.0255735183471,57.0163733640282,51.4296281055039,53.3932226544397,60.0264300698576,53.33624230217,53.5897186288886,50.055950088046,55.2868358117501,54.9244509247395,53.1780702786309,54.6538691841274,56.9363718099849,54.0334786547125,50.7137271243822,61.0502488033271,48.032334724312,51.4202841896695,52.307480089709,53.2598574573907,53.0409281701869,52.4723433574163,54.0484647917161,55.8250120653304,50.5397399110909,50.9791709116047,56.0105983736128,51.7292124158741,52.9775114507652,55.2411949179586,53.6041945308909,53.8510584771968,53.2330878637599,54.3599000937637,55.6974426296577,53.393060411013,53.6571139082423,60.9978456677615
16273,0.409957274632094,0.461057517929308,0.419076912999139,0.412654211680634,0.519690047963868,0.643639339261023,0.526962771293463,0.411337330151227,0.428969216961078,0.437163241928124,0.376909451204445,0.396967829410718,0.451175392294557,0.368165477644441,0.464319603277526,0.612056006136818,0.706865258828311,0.404357276537001,0.33842892982914,0.443393911540991,0.37180785411857,0.418486223767104,0.364025180388315,0.425936069361409,0.371498575428136,0.36646231497422,0.464717677744645,0.568456202890009,0.46562281001787,0.449701722888719,0.437384582416938,0.497482027764573,0.513650401172259,0.523757826344158,0.390710938651957,0.380566866229194,0.370499066841908,0.450571886526047,0.474751689606189,0.430074297609601,0.402623031328481,0.421443819935521,0.376248418370833,0.36415183794473,0.374939713285823,0.383235642270879,0.391945661961699,0.387410014821747,0.43301670263877,0.594167032902015,0.53665521881745,0.563234636081152,0.477404222333662,0.401422606278017,0.423203243829287,0.479689335440984,0.319131722729682,0.396983094766348,0.505030692326453,0.511481006942825,0.525636504214138,0.453884915619906,0.551667812817279,0.4614372192305,0.49471153562089,0.56883377565452,0.533255909633162,0.522571678744347,0.49440204709255,0.512909304685723,0.48500189869817,0.539127715386928,0.561424490791228,0.552784907985157,0.415488017103761,0.479777357834962,0.552056972083103,0.548686273348865,0.48787798835195,0.507665186362036,0.586355025430681,0.487239199463256,0.452651546488239,0.447293390437061,0.494900497925893,0.538051328282699,0.576293988493447,0.538083457076264,0.510758826517227,0.565308472540528,0.56256051118718,0.551710234409486,0.610840879578923,0.588071515307689,0.606289329339422,0.572025274687117,0.59420906730457,0.612460517785599,0.584008272465841,0.633664321376871,0.553790025249652,0.534430457983823,0.573213854742568,0.642158726347679,0.637378493888998,0.606315505578988,0.579926378846649,0.607089154360823,0.573373197965126,0.606437896681671,0.726281273299391,0.637534351293428,0.47792386214596,0.605390032500238,0.585495170003111,0.545402903099597,0.635369881170263,0.667626122344594,0.607411739536477,0.611633349647538,0.595094419421235,0.560219399761659,0.585745538989048,0.621732582990269,0.556902040691263,0.571581046179363,0.561905019720635,0.625387458555623,0.604704522590934,0.594261748469632,0.554695818926134,0.599159954187265,0.569144178783268,0.641963203752481,0.587777801412053,0.66341336094974,0.624124199350425,0.684806283228587,0.697359736795834,0.732287761230893,0.69944011225497,0.65192153708607,0.674642900778841,0.787688001144454,0.775437249283706,0.624409736053549,0.591695820739024,0.56462795261279,0.47735074144059,0.669907259026312,0.534258550898686,0.676540815956337,0.707334886618101,0.67559086562328,0.694734878505115,0.690935115399787,0.577910865345154,0.660883044885363,0.641862092969616,0.550311964050737,0.590055474570236,0.763662407799878,0.600949961527145,0.63811281169868,0.610579242292396,0.765078741722174,0.677984914341171,0.790018982127287,0.641672868929388,0.603972928156052,0.493246483062383,0.443519195195469,0.445306934945721,0.62080878014913,0.443649412203329,0.651436182476081,0.427398193595919,0.46186330369143,0.427761628044402,0.672334873711228,46.686527929947,51.1051449552449,51.1005693485764,45.6458453774693,65.2748057647193,108.549720724361,94.6214263251759,50.6977773097273,68.0390554560172,50.4934654918017,45.4513192237535,45.777467079391,51.2179702789066,49.4769185533787,51.0314280226469,49.3005201582507,68.407812300687,55.7225178418903,46.689575245101,56.3003012608824,47.5010707290593,44.8340184094874,51.6260290640289,61.9086133972457,57.4828014982425,48.5610696929094,48.2915151686509,61.0310384347827,44.8888638146924,42.777951088671,43.674991089482,50.7049261601323,51.6922629234057,51.7983649790365,47.7616511962743,49.0299130870839,47.4770806415204,43.3541073979726,46.7544298293398,47.0447181490282,52.9087332131441,52.5114013194997,51.2235028394846,48.9034490781834,55.6987191903046,49.9698807297909,48.1847821813771,48.3267539149658,41.5414087010889,46.0386812296216,51.5169049516631,43.7221118573462,43.1610581495215,46.2230247487158,50.3342625734322,69.3629375733925,50.734175219693,46.3801170729687,48.9709373527891,49.9110843899679,47.3734743294666,44.1517473753354,49.8067698204126,47.1402869373354,48.5034757026672,49.9408710389504,48.9303088599224,47.2453178824712,49.6952907311932,44.1891761469597,45.2770485519373,44.9665047322545,43.5158130359142,46.1940224177676,44.6164693054186,47.8209133596012,46.0565235931432,48.8432895152045,48.3059155184042,100.275059979599,103.61539894957,49.0782047303006,47.619958936418,49.5598083982252,46.9630955021902,58.0116821677103,51.6147374240163,52.795293961148,46.1606730537386,50.7130061409848,51.2960353631314,49.6348468891251,46.4898297987733,49.6077428303113,48.8251376616151,47.8354107116352,45.5820815540875,50.9869194210068,48.0639733382974,47.1786110740051,49.2299085833295,47.9857793441402,48.3524561821029,48.0883443974609,46.6079105976693,45.6693251779157,49.4024857728728,48.6596894420211,47.6583710139316,48.1092958775047,50.6088696953681,47.0557417523914,43.9386470847304,47.6262217828212,49.2912908251346,48.1647486778771,48.7371706241786,46.9554284164365,46.0362500088601,48.1098702701685,48.2286600187966,49.2310492240147,48.5073264986883,47.1938436852634,47.6762777346557,49.5164066777967,49.2697812294006,47.9485215305074,48.2968652905182,48.1483665724958,43.6735218772759,47.2328120806926,47.4713206281021,44.8045102189297,48.5293304043407,46.9585615925114,41.8258614129447,45.6130517995722,47.4799973147464,44.8518417267271,54.8761380215959,47.295327933109,52.7634541769049,53.3411591997565,50.5811065326074,49.5659362355789,50.7275032823717,48.1557334940831,47.7965121513346,50.1198540702278,44.0438835792877,45.1407443426326,47.2059251585068,48.6746252189938,54.1724346473446,52.4670280552561,46.2549004515821,51.6618493421932,49.6923844423884,52.6766036875313,51.7438035770742,48.0654315901121,48.3686743524869,46.0314361056529,47.3016304370992,45.4342811528447,53.6977966247162,58.7346720903412,46.677504254522,50.4834843221835,43.8124382504608,48.1221097262948,53.1747896958937,48.343472681034,47.9217226852337,52.2595730361143,55.4445750786196,48.1780208100714,48.0594002245898,56.0699732137247
16420,0.378075546332551,0.391315780827161,0.412125907327343,0.429176350294947,0.382004343062916,0.380292575389487,0.406199132035581,0.441043503472015,0.470533593790487,0.615942864814898,0.482420828448297,0.411326944341145,0.321371156934467,0.333186564358256,0.332162650567572,0.525241878849617,0.637502688364714,0.39641897975197,0.440483583387868,0.356728762730872,0.205050698247393,0.334314912478374,0.645768567212257,0.764795696441968,0.673742559803407,0.521099818380752,0.378490400720572,0.629889208778854,0.615508610194075,0.514165756826984,0.442108078218101,0.529434750644682,0.404329163166582,0.419950791755202,0.579599169793283,0.718734558697361,0.708024654187938,0.634060074421549,0.630635981986731,0.637721337348258,0.651859094211164,0.688507440514141,0.590799543714394,0.520536787856586,0.435550433792165,0.562437527775139,0.613302705244905,0.642264314077093,0.63373549090168,0.603700157254207,0.625529201436561,0.642465200241616,0.429621336343352,0.45178653662021,0.601751833136677,0.553833807824609,0.496333770497552,0.542543396983171,0.667548966557513,0.737934049522412,0.618834255415458,0.549434868187333,0.514366606604187,0.555356956871763,0.628575262913976,0.639738153957531,0.709641025809035,0.671137303855889,0.650851561868746,0.5343207050928,0.62915025506782,0.562697728439767,0.632913000383087,0.715189565120894,0.739929208499938,0.716975005881482,0.654741368720337,0.676460968944249,0.72576049475026,0.749378791088149,0.707875087077097,0.745125304854924,0.657684932854465,0.712144388376459,0.683247584175394,0.696915361460638,0.682106708581908,0.645679933436339,0.639322372196385,0.649304319771999,0.672640491073706,0.62490678224921,0.607816788242755,0.616193542796281,0.586508550287955,0.627172659311154,0.594707107746693,0.620354052572595,0.638220700818955,0.666280505436579,0.603869384479549,0.621519889002844,0.641403673884465,0.708300161004087,0.676362126112059,0.71214155475099,0.736496616750156,0.722304635058165,0.659726317472963,0.743233671229169,0.712222854339844,0.707302849817627,0.728062971924603,0.749458807510134,0.75139657667916,0.717016479500882,0.757817274731487,0.734212727043216,0.762373193858566,0.69876429628095,0.687993563340682,0.677582292446979,0.601401752912383,0.544715501798355,0.682129638752509,0.658938731869717,0.600437728186379,0.684680580978984,0.643576377151082,0.646520338869214,0.660841195021054,0.630669877940879,0.617056827308791,0.637562416901268,0.63946962476278,0.667405058621473,0.628062013154986,0.689701055547757,0.698472638535771,0.669722135516536,0.68931170057392,0.696595903576619,0.7180047797799,0.698870965788962,0.704056190033568,0.753845624158463,0.708300999721834,0.692990177435261,0.718871618099899,0.713547145320589,0.734053830471366,0.704269996243206,0.701807967463662,0.731575402589431,0.685532324646605,0.747988664876568,0.724804500430637,0.735334358426346,0.679331842313609,0.619255871390877,0.681434220406896,0.771684192338752,0.640298063315549,0.685237024217193,0.645551644764106,0.691701681713032,0.480640591180768,0.50780391068176,0.414821708294216,0.4296065931647,0.546994754791363,0.401684418165284,0.745817090446158,0.632260577556453,0.412385200535944,0.494451250014507,0.487172309819153,0.571719003341249,0.472977733480938,0.457297298788169,57.9497343750898,54.0990231342683,57.8221906009838,64.2237556138683,60.0786988747963,51.8522364506068,62.2357750069807,74.6836862822449,55.2376331915402,47.4963219283287,57.7155143783446,64.0614048802976,46.9752847381136,48.9691665962638,66.2643221763488,85.194515291377,73.4897708842987,78.4443419261825,73.5573279374973,115.116327207934,120.947404361603,127.560536764696,91.7117469889177,48.9979474516758,70.8638662262806,57.8613962548688,52.947307316831,58.1606359860857,44.8481998707769,48.2739446796951,53.0510374022147,51.0373281917991,58.3489176475292,58.407528938168,43.9521418244283,46.5922784762425,50.4151044189777,44.2186147028073,46.783033930536,48.718411874512,46.2345958450896,47.3849828128182,52.390534704387,50.5703209036305,47.3725132364558,44.9964057983545,48.1466681780502,43.7125194214148,41.5804458091704,47.8492153122429,47.7619823438971,43.7323857595646,58.5327427008539,65.2494220954095,44.5617684030897,44.9315499731679,44.3309851930822,46.3161282702904,44.8422077552496,45.5162802693551,42.8521352162365,46.6933575458829,47.509690573269,46.1692530337764,44.9140581311579,42.996594213159,44.8956998947557,44.3373455021165,43.7209989352975,47.6763802549116,48.423423525008,47.2670851238198,45.0811388745012,43.0306862014082,44.4847126623183,45.423809188466,43.4700248105724,48.1868943383378,50.5236392929115,48.8301063065993,49.8680128280872,47.6246782727327,42.7541063655918,43.4506015782696,50.8726078794897,50.6195047485939,46.836486130263,47.0194881113244,47.1837810325973,49.8203258433074,43.3315306923385,41.1951716836069,45.7214194857604,41.8011794549709,41.6459990674064,41.6553880960445,44.8786541344544,49.5106559500204,51.47865358191,48.5598153347438,43.2993853733863,41.2779528771691,48.8252359588252,47.1698764553445,44.1691234761166,43.6966341012807,43.4434816631066,49.0365098877435,42.0563878670226,49.1824287833392,54.8962436371416,49.2531123398828,43.7928842140532,45.8808012037867,44.0523040394635,46.0190318932524,52.3936765665653,52.1166071615081,43.0116171690936,42.9329285888793,43.6135587198154,42.5711435535527,44.7636193864047,54.5367546331254,45.3413305042044,49.0178344499327,46.4078812600974,42.6927765741879,46.5008029257944,46.7575380157567,48.8252870106399,48.8776483060717,41.9983333080773,40.6262065008331,46.3329109500313,43.0554946755474,41.8290274096506,43.8655695684573,42.23919812003,50.0237828584509,45.5331335935704,51.1905104236144,50.0495035623095,43.0839754175792,50.1799778746674,46.9862753151368,52.3299077264231,45.9654677865906,44.4063933269321,43.8534287442243,41.5165636273572,43.9113527037375,47.8779408782927,45.2103614096517,44.2342041740007,43.7862840817484,46.2000259665353,48.3125954559081,46.390795421474,44.0392251472756,44.8809422293302,46.8048427709903,45.8742461318887,43.1089901695516,41.6910053070278,44.8430395402122,45.258375202564,51.7182143230168,44.1911868815232,46.7126899890582,54.978308306009,47.9982260055322,49.4442804086298,43.5142556186127,51.6515874764213,50.4512996875153,54.733023971161,50.4049581493401,53.0169897245259,59.368324858427
16483,0.789974468037179,0.804403238818131,0.942809274543252,0.946439049732031,1.04072520788182,0.873953230896679,0.907881902665397,0.910826012311593,0.931538566686576,0.882732302930602,0.840693415303701,0.759572541967767,0.953005910541871,0.787297367108231,0.702732431319614,0.758318482205956,1.0921310675703,0.786956767607382,0.71705776243748,0.947646304487512,0.799150042527175,0.75002085982299,0.863813348427792,0.697745560984875,0.838812919225119,0.896019265262743,0.954424889538683,0.95611445693139,0.937732351750946,0.84896735653134,0.896582536889166,0.820803288367841,0.796694451411713,0.721155482705781,0.631687254028494,0.779327110712368,0.720236913205378,0.88048833754621,0.655788169016486,0.693277450381497,0.829919466803144,0.831126744734118,0.714531500656675,0.750098890609096,0.688240651422685,0.716683159261806,0.730260207281256,0.75201963320779,0.739351761585611,0.765301397829024,0.731687632118305,0.755530365591409,0.778309487000456,0.783035982978885,0.95405201040977,0.851235925055912,0.829103828135052,0.762495397394233,0.827170510412191,1.01204640401792,0.96836546605141,0.830683551051536,0.877693013025413,0.851777718291376,0.902063357650059,0.913029009705924,0.781228585475075,1.01706271620888,0.835093393693443,0.971847871960225,0.955084822522275,0.821912507783614,1.02189925315471,0.978756296872405,0.846315986536754,0.823712785985195,0.770275501132049,0.816832826958986,0.705558609975685,0.893221792418989,0.71074889003894,0.662407927085647,0.73374263616557,0.851074159983766,0.667471003241127,0.972048565244767,1.08506429714301,0.84881077917382,0.740407437024616,0.830322156687654,0.807818440103198,0.922235455471105,0.778917022783653,0.852155658786052,0.768944714841933,0.890340262737881,0.848513373275473,0.754641543255874,0.828128831912142,0.758540009961312,0.76236407575656,0.780611763992864,0.787068041830305,0.808252591238099,0.745749655172766,0.762912785173537,0.830190739296777,0.780012463883466,0.775934357050475,0.742093332718618,0.843531001755303,0.699778936987884,0.756412968823962,0.799106511437017,0.776029267549908,0.85044245193173,0.805139378063673,0.831696646527215,0.803051093401798,0.812237952633597,0.763523105347748,0.702201288748039,0.749572962447962,0.856875352459788,0.853202836743104,0.836362438806585,0.806744494736003,0.817562508787299,0.882603392501916,0.850927242234334,0.73309561799862,0.819073698516564,0.82952733837848,1.04135550946371,1.03015653968241,0.980841436173379,0.907456996030741,0.920004529282254,0.894168347044401,0.915628558695767,0.845823180727019,0.838257369975822,0.883452111684438,0.899276307532438,0.895317404392771,0.942311480424746,1.05461627635403,0.935802430312583,1.09378968200818,1.06555350182155,0.943230990197689,1.1439209512427,0.719495245208947,0.754510178802282,0.879708654895718,0.917337598571557,0.856893763835533,0.930790238510811,0.776742322140798,0.875538423681351,0.920541953485697,0.839412216215606,0.867707341840213,0.863969835532157,0.785602977872884,0.968510988492198,1.000864524308,1.06618165745657,0.988935679146893,0.893277547454329,0.757896226752915,0.877698392681169,0.772910316535499,0.827243191284431,0.952134307918142,0.946369560044386,0.80621661567466,0.807110269527346,0.854134667271705,0.979955589316656,48.2087861040667,52.0670230727434,52.062469054674,53.8116976095241,49.1644851673102,50.8764555675099,47.2923700663487,58.6087865038254,53.5129886916185,48.7283332730468,52.5945679801846,44.3557997026039,56.9236513636849,45.7280096779824,46.4602639247606,52.0652288944364,59.9743197552186,47.735085650602,48.4203478131968,51.0355866595003,47.2176324995741,41.6209686302154,51.0357089647788,43.0380903131431,43.4579891089426,49.755591150705,57.1413639295882,53.2214888435918,57.5787994602647,50.4350113471443,50.6993952873913,48.0417438781523,48.5034419333927,47.8057849499188,47.4762425692112,48.2185007683945,46.2597411055133,53.9868882037354,46.7592580788351,47.332104039939,54.144175711064,49.8899318551734,43.4411917140326,46.4371600250306,45.0648584517346,44.9175310638645,47.7070059627041,46.457959297714,46.8086409312592,46.6477362921826,45.9345082958891,42.5031608301799,44.6534252724507,46.0821289012333,60.8286397599198,50.5308386465754,49.9823976202318,42.7752727540694,48.4701990896459,54.0440493665173,55.3669257275999,50.189396838907,56.9216303894085,49.9597094677044,58.6421926280128,45.1598253616627,48.1375711189069,51.6086825208984,50.3927286149818,58.0861496187066,57.2775472292091,53.7622996292259,54.5785787137627,58.5107025007756,44.2970698167472,49.0531963950828,44.760253511636,49.28315760621,45.8677070246408,49.1322051608925,47.9018829693282,45.6330256376968,44.8758888547595,46.2546304337331,43.9315186623591,56.1691235231743,59.7929101673198,54.006280848279,48.5831735793845,49.2569881685304,50.7686434892442,56.0979979900122,49.1051879165705,57.8146068337437,54.2715316412049,52.3237787442653,49.5912183318611,51.0970123934633,51.1463896933576,48.7547828035587,46.4978637366712,47.0646963547054,48.3732296435062,47.4628042826404,47.9586703946514,49.1904824709561,48.841670393679,45.3214780312321,46.9637720684796,46.2231606787127,47.1967939106836,49.4173371509615,46.8334074111032,48.0025496682119,49.255600758648,47.7238931430996,48.1481005919763,55.9495608406481,44.7663953535278,50.4690363673482,43.5490698976614,47.7963376180582,49.444035918483,52.9996118154957,51.9281370964569,47.8067646394639,52.1608307071204,47.3020553176145,47.1675924664714,56.9900879429448,46.5415055982302,50.0692452185364,57.958207487108,52.6934510490018,60.5942301456329,52.1724803123719,50.5923896017599,57.3188715014506,56.5810838019172,58.8061213269098,61.6668464279134,49.8337321410128,44.4908765660694,54.6119386273663,44.966426442495,54.4312775960269,48.8387536900748,60.414464631697,67.4327964333108,58.9471682775159,53.2066155565109,52.2457170376569,49.1982483199972,48.2931119345077,50.2579856486429,53.0122972610427,47.7976454348136,52.3911826479033,42.2375415299151,45.4663382449907,48.8282719837159,52.1089694589526,47.9607527880469,48.7008314412049,44.7402077002262,49.224916815429,55.9952407465194,59.6925333846772,56.958797561178,49.5916193503431,42.3475498826861,50.2398793793003,45.6914859219058,50.802806288657,51.8281004731319,46.1565101654648,49.0819825507194,50.1569153820272,50.1064244646364,57.631436620112
16539,0.709580917876469,0.704450882832318,0.715750333816013,0.7589257514929,0.692886210209301,0.746590865773064,0.704501235295566,0.811078182866421,0.907652088751645,0.826967101376026,0.828937435737888,0.832769952105085,0.726864085681664,0.73639310315804,0.726674082401114,0.687998766897934,0.71846928857455,0.748449271581154,0.725984731587445,0.644569348794263,0.919607566905628,0.794371804344135,0.807067230448912,0.899733261584384,0.87601898694527,0.973252742777413,0.798390673191284,0.806538332110439,0.746505680654643,0.678855961270681,0.718994172623719,0.739042363851399,0.779230445513357,0.671173762149701,0.659488557651451,0.762807362938861,0.634301055886795,0.814863619916475,0.758529483916774,0.67950762484587,0.744148053604307,0.83559131562388,0.783938843151114,0.87875963252019,0.843541189168847,0.753651856889392,0.942437730380274,0.841608992049337,0.839912376998971,0.738974852827551,0.776076657924075,0.925538621250858,0.944818288186,0.915822361117316,0.816315512161503,0.726054764149248,0.857926281788328,0.948248027979882,0.717634851835575,0.745214514901275,0.705990544697403,0.650983180948572,0.654199041144442,0.735938350252977,0.780693660342569,0.638213591803521,0.679045195687325,0.725581592084979,0.694011510124759,0.693751102763341,0.718671617801902,0.664177474710011,0.718079291355407,0.73309062992812,0.702450659564171,0.689220432627571,0.707041962400182,0.641537608835084,0.785446926290083,0.803339905662245,0.782131337517794,0.703578813699867,0.683669793061711,0.811650797548665,0.778296338949381,0.801562148805262,0.979608888304094,0.783861992406294,0.777182484304013,0.752140460414142,0.739449724111373,0.97098266133222,0.928952982648755,0.970446360369731,0.78591949984504,0.991042843721101,0.787169077913985,0.85394467473252,1.013659891679,0.945309282028848,1.03013278589839,0.950649914975548,1.00633024680325,0.977511472960425,1.00267623883008,0.854987846578664,0.777021460344924,0.883313217119756,0.956452031395574,0.900582889575788,1.12022735526877,0.97053969972961,0.978595766987473,0.982057172544335,0.921974494874143,0.90719689426557,0.94431346472073,0.928625518724924,0.987711450891595,0.920610862491109,0.689901435457595,0.854471613862327,0.734934686476781,0.703513928124856,0.713915818848993,0.75541418419867,1.02172185037647,0.92957962544633,0.823235828544566,0.880317722910484,0.923656314379409,0.853287007365491,1.03626484656653,0.93441454656241,0.887395026888505,1.05723911047301,0.947205483317481,0.792689778683071,0.878357024936574,0.756206918949829,0.953877569391265,1.07000189407625,0.971149856099486,0.814483868700839,1.11071676938281,0.81429539624773,0.843303400319082,0.765259535511463,0.827435250901102,0.791631286739713,0.827321639894921,0.928156367140055,0.943423169755825,1.03033037324528,0.911734631775561,0.861810748510217,0.857454377453049,0.652327039278284,0.935622562639439,0.911036206232039,0.82679534003474,0.950835543582751,0.801729585484573,0.730249135990579,0.924133381338556,0.983878570341134,0.940651624752608,1.09766693419256,0.779699164747961,0.96400085683845,0.989116337574916,0.879633931345873,0.957372837175256,1.06464087966322,0.944110602001851,0.778515686189037,0.799957017997874,1.02395041328879,1.10278499048586,0.973128540949533,48.2045188400607,47.4877476444748,50.7508227625316,44.2744680634654,45.3410942699062,51.1541028817047,45.4995096952629,46.6837812255803,69.494866736499,46.1810116134626,53.8599776666905,53.9661260260096,57.1269371710902,57.7798641897275,47.3296215921301,49.2374959923603,48.3155753744155,52.2939431331839,47.7090977848782,47.7034471815068,51.8908567412251,52.6170242607801,49.0411315305893,56.5329683459605,51.7922239978727,48.3249990311174,43.504685083674,44.4276158182216,48.641400660194,46.2486069980623,50.4039053898621,54.9259566398943,46.1698245187154,47.6326684656603,46.5572841385825,56.4235478579521,48.1801488247134,51.2818308089587,53.5329478024736,50.2448263515206,56.1037505209067,56.4176862095898,47.0603114580326,57.8910963767713,52.2921145938053,52.2761653908963,49.3829984544009,45.3812431305409,44.7174302730554,44.6573333866239,43.4417996789878,47.0354333196997,47.7002746546661,47.0980229709981,48.551317102551,55.2459860651318,53.3589115703183,51.799970938158,44.5181627107234,46.5699751715623,50.8908245581642,45.3855844495703,48.8783967928556,48.0744230835295,52.8104494196458,49.0790013609278,46.231685390696,53.1150441216011,58.4244017876606,47.3834566732691,44.3299347287591,46.3176688722709,45.2373091193486,48.9037711241186,46.4830795402333,45.8997438278901,47.0751521850496,47.2131704452233,48.2121817628833,48.9483075764489,49.2081277874304,46.6655030387548,44.624516347565,54.1382057870676,44.8601878334856,48.9315547855093,51.7141121809506,45.3713972881567,55.4583925346041,56.325898488706,51.9371560609358,45.3569483197202,49.7223310875331,43.3855745684997,46.5550695829803,52.0811123691992,61.7647974621513,61.3404392602451,49.1813214334976,57.4186142998605,51.2426807855077,51.4722622869373,60.5268558561005,60.6611815794292,57.2761547979001,66.16643233816,53.5970198837228,53.4662438935196,56.1933056221465,52.6672291186012,56.5205825854738,49.611219818651,58.6462706404961,74.9642023664371,53.1813448881372,50.3633416391046,53.2858595321506,55.2264057948656,55.4863521292776,57.1056486341857,44.2628232462369,54.5898781540485,46.1630592097056,45.1107954659882,43.4200699448646,53.476071004735,54.4464970267569,58.3941350756843,51.1817776979949,51.4755420332876,48.6163076456558,62.6990698083868,54.7721279616171,51.9146066946526,61.3508722998652,53.341294820515,54.9972403620341,59.0329132150993,55.0809190584493,50.101716432154,56.0105703679357,76.3966770474716,61.09155074203,56.1970981136464,56.5418944155694,45.8970844902312,45.5933691058594,49.5875964633542,51.3866823338062,51.0556610684522,57.7062960860016,43.4645935229849,51.853754628481,55.6666611847218,61.4062272052666,87.6126024257755,53.7773549848954,47.0651256033879,46.2427985802881,62.9148606411778,54.0593396040604,52.8935291951268,49.972752948991,55.734660581264,71.9726706026018,75.2867021428532,64.0361414892278,57.6041972578752,46.6448392707482,56.5744736572592,55.7123221378775,53.0766339832415,65.3113504496693,62.3774773037379,69.2849713297759,57.3011650907257,53.3421971050015,67.2851215637524,66.966366728906,56.0799084891264
16773,0.865078758434556,0.714158205482388,0.677691302527176,0.779667761992725,0.890787004623386,0.898252808707227,0.906952003987317,0.970052878180383,0.961746385237648,0.916767035765036,0.820470759520763,0.838365254642067,0.962038498762858,0.902348391349855,0.919151603024784,0.854462261426066,0.900872442855633,1.05215048900187,0.885246063182128,0.890860258478959,0.845887458696326,0.888772868362475,0.82133153873594,0.904656495568399,0.941070760872642,0.685876774768456,0.908883179069335,0.861183403347556,1.08026022170364,0.935117452264407,0.977371902705761,0.953077160766761,0.898650658807001,0.917204162686602,0.97843731317707,0.97603816458218,0.800167975314029,0.941887806826786,1.00662858862946,0.777360362152539,0.651608545874676,0.521101680920384,0.726095069613016,0.570674356733956,0.604982420393659,0.599523950382275,0.650770593731762,0.599534727141827,0.573515796619442,0.502806230453333,0.633422421667893,0.559649096731279,0.478422698855116,0.456056704562545,0.449233996421035,0.573483731904927,0.475294007543524,0.452368787964841,0.443829560265376,0.478124047664548,0.470640561456697,0.480963212199156,0.563790686218812,0.474078138321897,0.413842662448711,0.428264390066174,0.443183047220847,0.477332720411917,0.450870487461874,0.446809377070001,0.491148463654275,0.429151517618897,0.439916797311829,0.464320413525081,0.46067894596086,0.446693996580033,0.411874547606223,0.50583998105125,0.453387290229876,0.439940842607678,0.434546436553898,0.452249325312777,0.443008305888196,0.445168132721526,0.473921262771867,0.410350980863313,0.455122664046738,0.391135969151728,0.5151744518604,0.461192161695636,0.425746480898932,0.479452632175113,0.454857292784768,0.502958782766448,0.417767892711649,0.404792344735849,0.408446679036925,0.438715046110003,0.442960097702605,0.392748326073896,0.397999435927298,0.411290407738099,0.454029147670877,0.4565452419083,0.473787841616178,0.511257797440043,0.562237540074045,0.460369993463662,0.492724864757448,0.450791875494574,0.449780996784021,0.487532263691633,0.455176865804251,0.433601281304779,0.443744276885735,0.40676558789597,0.407867486850059,0.408473724514924,0.393329613003382,0.425788508343655,0.420252723704332,0.463840281538067,0.478580444847998,0.471033667458378,0.447983782442768,0.454547758930038,0.430212841082667,0.398666757166186,0.458137112074775,0.477455755403792,0.484663500222876,0.431533849063854,0.432726053654086,0.472345355898874,0.680629514538368,0.545891524539798,0.433115366178036,0.435224557793416,0.395873248615412,0.397483267624362,0.45346101523778,0.420756534055995,0.412124774449848,0.428479272981417,0.464196613897374,0.437687795219629,0.409429985922003,0.438845695627824,0.433085160101181,0.437293390012651,0.63637289367646,0.561073259381987,0.473242765180499,0.58641432533578,0.595443762890841,0.54360408239376,0.492401480855163,0.464415326039643,0.460773261636305,0.453277622220494,0.520488065123034,0.432978085941208,0.438936044398723,0.430030770538244,0.412595957521716,0.400812711584016,0.412713122682869,0.449403775933763,0.485351995060346,0.445472155494955,0.443928508772367,0.402054869874298,0.428460905259091,0.413634516220663,0.414705704683508,0.468235688206415,0.522277681116577,0.473200137868455,0.464552977642206,0.519959001018521,56.2011425259011,56.5881929879404,62.2750606595685,50.7704553377423,56.601909678243,59.1113958057843,64.4604366812074,50.3212391436172,53.7769545398874,69.5525517933939,61.381479528744,57.9777240486325,63.3990613535896,49.1130144983637,52.0514375533584,41.781391851544,45.1568245441482,56.0191985608414,47.6924824604034,91.3789499718893,82.2334512430994,84.1995897419203,58.7891911708926,71.0509386018286,78.3037301258488,53.9022519741605,58.7847627013459,55.9487562232137,54.801050682166,44.3243702441296,47.8006093239022,46.4703087712447,47.2458258437219,50.421458459776,66.1184250761615,69.8976067316918,63.0160403848585,59.0393043812556,72.612929349168,54.0835122235541,44.8751178411283,47.5576294833945,54.1686619246428,49.8397385652675,53.1788733748711,51.5575514775109,49.6759469315871,49.6319995147475,48.9820139594971,49.1308999359597,45.0981102486836,47.2755106197902,47.9519643414393,50.309036336703,51.9500058447667,45.7433157235876,49.0239962287829,53.9122330691651,49.165163380238,49.1611491083462,50.2364200512201,50.338137595058,46.5018862179862,48.0222870919654,49.6460582181464,52.0617175591395,49.8877464872238,49.1637478226966,50.338516058285,49.896679008169,49.4823331928108,49.1372447476284,54.3187801782914,51.2203255346078,49.178360022768,49.464236070379,50.49275855472,49.7361517154531,49.4644729528204,49.9220388482957,50.790693846722,48.8915362825973,48.9615222394417,49.8893763989111,49.2301247453943,49.39207225964,51.5989397703994,48.8499682080552,50.3357830052092,50.9147303901724,49.395525532156,48.2200174054367,48.9379479854854,47.2465232225321,49.6215591367135,49.9900015038418,49.8798899612246,48.72912409809,50.8465296712813,49.4074531227196,49.9878601266457,49.6495174991437,48.6557437286897,48.3737443495606,50.0863080867465,46.8256105809548,48.1225914972337,49.1867557785209,48.8838397843768,50.8400750879346,51.0079629873034,49.5592868358384,50.9669523626502,49.2440655272893,49.6087759538861,48.9833545738957,50.8247117994849,49.3417731174433,49.0066036899105,50.3064227244091,50.6019632619175,47.7633518378325,52.0986083454085,46.6337093302949,50.1176926767206,49.8960621853611,53.8532463340571,49.8868238055948,50.5056254091166,49.1863651312869,49.5163209407559,50.8004823223036,50.4974073767027,48.331060066304,41.6636556227751,47.8725337773395,50.1681998288699,49.6394713226387,49.7811346976846,49.1985087462318,49.9223508692837,49.041649426497,50.4110488386951,49.4739001484332,47.65647331359,50.505474704152,48.7695285771053,50.7044382201517,48.9711209808298,50.2550614860453,46.8222145673054,45.8822274423968,48.2945707125796,47.902698870176,45.3057656864992,46.5211182925461,48.5749420791932,48.9532408301367,50.2159542916115,50.9503386280907,46.9663785250002,48.2212897361173,49.9638171423834,46.3681018627129,50.9478506460365,50.8806000614185,50.9794799263614,49.7158037827556,47.1881114854822,49.4421006886839,49.5478433681339,50.6601136264985,50.3393055112265,48.6638944339626,50.3495939789634,49.9381530779537,48.1763670170041,49.0108648424777,50.6021778743634,47.9943441118093
16786,0.663531086469096,0.677973859055574,0.650569429523188,0.574056489110885,0.728502487732596,0.619019433640801,0.855962677894924,0.659419234012178,0.648081989597486,0.638698481730393,0.648647703484766,0.740747028233207,0.791070672545237,0.643422874263555,0.537493978359364,0.657790689883103,0.736107087423251,0.878138414615995,0.778031539395818,0.868490458790721,0.729025358078914,0.77014827517021,0.786345895486753,0.688186054402586,0.658699312853295,0.905553800928689,0.861905758456533,0.738440327159729,0.857979689208458,0.808807127190583,0.629111841594252,0.723471791966359,0.761309390121287,0.76728321474709,0.639639688273163,0.689766549363016,0.665022410268735,0.740475936472723,0.530676788917084,0.619637254591554,0.6802204310585,0.617364631079176,0.75330037954922,0.642543923774805,0.588432388152642,0.65852262899671,0.593446456243212,0.78184051238174,0.60516443959913,0.701752595048855,0.845422525738937,0.775016974539905,0.689451197050083,0.82004862174183,0.655916260543003,0.677110659380546,0.711753108084917,0.712273062391018,0.713906350951441,0.564984800468598,0.811821100851887,0.619754035195494,0.661991846772768,0.67189805019621,0.754946918779968,0.759029734789116,0.573259629657456,0.77688441701568,0.790163287699618,0.662805012796586,0.600473721534182,0.657681769410235,0.698610962214314,0.802629460033893,0.869160895442029,0.776200323295062,0.636296474810019,0.743093919907996,0.717587731163186,0.647706612870133,0.609285063305667,0.553365823984663,0.537922885747608,0.612681694864664,0.791804738671685,0.759482761527466,0.615334974143902,0.85030771392109,0.668216172798166,0.625620857172686,0.660522392166761,0.600947499323007,0.69609224443935,0.81519048033205,0.700489471742968,0.71819131792532,0.532344584514159,0.556047796875743,0.814053697142074,0.845162811344653,0.579052439534556,0.638452800977866,0.738720375862152,0.574083492130373,0.575209698624471,0.739296243295286,0.743638136661575,0.637092876310997,0.687273362294517,0.68309774449315,0.682205505492883,0.783773518836957,0.735308556741067,0.659445426233333,0.543931292607594,0.698729937286071,0.601562023194486,0.612311127549,0.704930363073436,0.652658835427963,0.593169322805627,0.870452245617508,0.714421096925154,0.699682423187941,0.722662084002847,0.707076599048712,0.789163698641203,0.763206173885962,0.795887832680812,0.641608662801936,0.661933443592118,0.606600673147014,0.683696052192989,0.779622366391935,0.763671284566581,0.748183077693761,0.693286530076628,0.681623761561048,0.567216805488028,0.75377851375682,0.672398547201844,0.747336238048381,0.717300859403962,0.657371717973825,0.644989087243972,0.661861956401346,0.693744765179323,0.741889510270669,0.711709021470993,0.625156589412385,0.50726673267714,0.604047556077677,0.694795679905439,0.744984334176325,0.647644338278571,0.698063947894589,0.709856216076749,0.680813192245928,0.702336675986101,0.662660719885648,0.678228918197642,0.678017056385333,0.733046575180729,0.575731867778748,0.707870159525494,0.533260193343176,0.667998422813651,0.652046109708443,0.684138171642647,0.629848930665664,0.673440865682379,0.701699629167716,0.565133448058968,0.525312876491175,0.662560339751421,0.826897609436955,0.581618497631871,0.742500073260254,0.701230261537825,0.663833762495346,48.5603517081164,48.6411959004436,45.9711347356087,48.2362916241923,49.0245640288767,48.9375447716408,45.0270957505468,48.0949198133306,49.0844363408513,45.2802815667676,48.1391143530304,48.5184556415555,49.0622639586065,49.7627232976362,47.2655671646084,47.9755199514838,45.6748983817873,53.1422196141892,44.1189321758986,46.1935118315694,48.3676369974688,48.2380910961739,45.9073741639745,43.8728699322939,47.3308009537936,48.5773894822518,46.6933177036691,45.0051104485538,47.1462207127824,50.1775669850355,47.7433316189875,45.0219918961498,49.4288179058456,51.6261484004281,49.1839693725852,47.340067683596,45.5801814601606,75.3450697129247,45.5242714851945,49.7523670433067,46.1550899448628,49.1788683657806,47.7510404889895,45.0591058295768,47.6849279620533,46.7907070483188,49.6991012678514,49.9025279910947,45.1449152630344,45.5941401892571,45.84195614407,46.4841803156685,45.7087439127627,48.9896781640321,44.6763452993636,50.8322694436867,49.1797015326676,48.2695109119795,53.044794374341,47.7394024926485,50.7038760102073,46.9750461813757,45.6562036870362,45.8613054570215,46.03541453278,46.5925983200611,43.7455112962985,47.6109333023721,45.8591836967111,46.9955876495486,47.8443403779519,54.3939338668916,52.770239274533,45.1421442844371,46.1852506829723,48.6805450510609,45.0542823528168,47.7568432181279,47.9078516191148,50.6306283651392,47.1266083908284,49.9652273423995,47.6925630859016,47.9465211593354,49.4334875569082,43.6815006258511,44.5250013438205,48.4228281917141,47.325543711418,44.931017028903,48.0718428013635,48.841445828992,49.9161704822901,44.076455260407,49.0667012870581,50.2013238612073,49.6313449518559,45.1436713551295,49.1659615292579,47.3532754724928,46.0427190979837,47.1589242025623,48.5394446084515,44.9465747781152,46.1474623546736,45.1037824315169,52.6238299526039,46.446441041119,49.5364930354375,52.160962789388,51.5701342435509,45.7949044897082,51.0025803763833,45.5928211024869,52.0509135294744,48.222987864798,45.216813042025,47.44279705663,47.1231004024344,46.1771698823859,48.6881093292341,49.645623545829,45.3060481520867,46.7972905568847,52.0362558274325,46.8384256863279,46.7742653466275,46.1569454607208,57.6894854947963,46.5245197141863,47.0498665481955,46.6848404243685,45.8344439883113,46.9201384801974,50.317999842292,50.4481542543023,47.1753411489625,47.4249768898045,46.7465431579545,47.0267601331945,47.1401633384084,48.354087546813,46.2490283970066,44.3810505784857,45.0666621774873,48.0709447597582,49.3486416967014,45.1189297063913,51.9685318313831,51.704141473253,50.1835103868759,44.7202437123162,49.1214099863891,50.891031016829,45.3743307216244,45.468549809966,47.5558805890557,47.1020801469676,47.497099490749,46.3521154241562,52.6542543885795,46.497005464179,47.5560982391056,47.2795732255865,47.3055902264422,47.2558072571768,48.4562606651415,45.8354326762266,48.0336539352974,45.7067131214433,45.9581361254601,50.2822427628833,48.5543064439739,47.5749351603455,44.6143123699984,50.6957049892011,46.1829343006522,44.1907618736988,46.7312879773106,46.8073293077309
16795,0.686448538803295,0.745362832360572,0.754643039907451,0.68010480963154,0.541238683633736,0.629819760187649,0.648785622019414,0.695918295171607,0.854693029100177,0.826365132301821,0.652942605357839,0.733850020522137,0.902125329899824,0.892160479345982,0.822439089436414,0.680789928492796,0.528998101615126,0.714880582713685,0.735097851940422,0.633995174034085,0.66499768142189,0.686020214827075,0.640007934395438,0.854555386294155,0.863172932765373,1.03092741253522,0.926079548847491,0.726533556979316,0.648108091215282,0.690194063900707,0.508228116591588,0.572521809466105,0.788003176184781,0.691347796584525,0.635409260525829,0.612863166473307,0.560388521821997,0.797570717886032,0.654911908920894,0.583026599448616,0.570105476392508,0.80486476550121,0.8508382192092,1.21704172218232,1.11313289111593,1.07570970735269,0.826915270349759,1.15904546272868,1.11777111372814,1.11755534624945,0.997609728686558,1.02299326199819,1.03790884631766,1.09861228866811,1.1126614432906,1.19419192551812,1.02359844912528,1.09484296645182,1.01437155522805,1.10591065103459,1.1283263982849,1.08186563769316,1.0730220181161,0.947428420956113,1.02069814878087,0.937922705849316,0.866730777061755,0.92338858064398,0.93689976633079,0.916206265604941,0.769013148272187,0.686807002992753,0.879032895913072,0.836966215473621,0.59069804639063,0.470025953414998,0.467172491954203,0.50362040291052,0.470529289562914,0.465253921411156,0.39375815343464,0.434788826920565,0.391337925822437,0.440152112382574,0.446418650146688,0.42605444281845,0.534916600881582,0.463500072702449,0.593241626403159,0.464915674121109,0.421630213674905,0.456849590144762,0.427525411809257,0.541888422637668,0.484521109121691,0.428982666184425,0.557673928852438,0.414387848663014,0.472578880621988,0.48435394833794,0.50785424945659,0.506090876937857,0.498094783646917,0.368749210040741,0.523430304383273,0.345223365182313,0.440818237021817,0.36839175072685,0.714843975955722,0.614074281062506,0.649668452257667,0.731097711063332,0.814217921074101,0.740809453135806,0.592943337253158,0.53528783191423,0.429625309429978,0.638235834204253,0.54018190367786,0.447057871402545,0.545719739638366,0.415697521466493,0.628079741860153,0.692786267445859,0.641353312452463,0.525509587682548,0.543002805303868,0.589282264279499,0.531325723420232,0.673451283440517,0.454624994945667,0.572729315253176,0.662837469287451,0.608673789617233,0.62867647411938,0.625419385172848,0.545558536760031,0.471617322262627,0.695199305228393,0.544853159568831,0.556598610411944,0.554528445220495,0.749537449647987,0.590452873027933,0.504673016776736,0.777255236048251,0.467543363261029,0.52764673768038,0.374179845238913,0.547328263407291,0.500886252196278,0.414579138324169,0.371273598474355,0.493967909684464,0.50064722528013,0.451267384475449,0.582145340326666,0.469424605988043,0.505261288183318,0.47711474076593,0.42443499958294,0.452138325913178,0.426989462507388,0.401099896394912,0.552647811311503,0.490314910313749,0.60893747776921,0.610805584082351,0.461407716327223,0.393851243828323,0.401996793049624,0.496766212844119,0.431444604762773,0.456058765992234,0.438615561257382,0.567834483360397,0.656590816680168,0.431003750032041,0.409026135453345,0.426885872712514,64.3043969297533,59.6223819133519,67.2940294817262,69.2801598246808,65.667913539919,51.1289873248902,55.8724184964982,59.7310163324085,81.6700843154105,60.0743655204078,72.02058701381,71.6495232589449,61.5641497025188,58.9494920622335,67.5338234254208,60.0439350555701,59.2503685850891,64.2004686562707,64.8138545747759,57.4813150706822,65.4736011922027,57.4614342820083,56.5126600610503,64.8056118523783,51.2338636605017,54.02349763359,61.3570612830476,60.0604428972655,55.6577649852065,57.7199293154259,52.489205128662,59.0876493318348,68.239264700226,63.3328704345704,63.6643826429153,55.2810942587114,57.5440323541708,65.2076645620833,56.4350348058829,55.4589428730999,53.8709230368444,54.524666019166,51.9572909205957,55.3971042573505,57.5733964814055,56.5872900524493,55.1117886926956,56.379039654486,50.1793547390723,51.075100053908,48.0921806980106,49.25035393617,46.7671262221873,49.0570201576182,51.4849200159449,50.0505129895909,69.5790882632415,53.9666611704604,58.7934098601862,54.5830416570568,50.4733451235428,46.2569008542195,48.5197499254615,47.4968072451675,48.6934717017765,45.6265635229548,47.8847478486789,48.6088163590644,55.4325711028258,54.9370305727421,48.3572899711404,50.5100898854114,53.7793824905813,51.6010067028661,61.4396144683643,58.7873609132132,58.8968906210476,55.7119531877275,57.0695113689024,54.856153746096,57.9356681021285,61.8610764248886,55.7234248226679,59.6890877564307,55.7521694467716,59.1412648698566,54.5423308751059,54.3364171320789,55.5382971176982,56.666568398915,59.5625237256495,56.4369710522924,55.1092715891985,56.5052303177653,55.5078983645333,52.5958118895621,56.6598720383974,56.5192665004992,58.4532962316057,56.2954230399003,52.6360508013762,64.1564498988886,60.0593853081134,59.0993205034891,62.9869856238165,57.6313666716118,54.4993633174581,56.0440882490858,55.6546778993125,57.0435048629051,63.0992826110327,58.2500462653358,70.2464430824244,60.7388662624369,56.4831818827184,53.6740153520169,55.0770602480329,65.1396539282534,69.6748073119296,54.5687103172674,52.5791593114137,54.2443688001374,67.6854081498072,59.981003208695,59.6261936244896,58.0267308282662,62.2913038107453,57.3812788391757,59.3138754130964,57.2734380890719,61.9587885608454,65.530730732273,53.6784889719808,55.4722191086318,58.6986675512235,59.9509511292774,57.9471538354872,61.4885397365196,56.6362692069944,56.6108248889021,62.1214983437022,52.8584318376242,69.7070313335967,55.6804962678087,55.4938427619657,69.20796788833,53.0890044775382,56.1408068482763,54.7823163069759,57.7983821608928,58.2915805561461,52.9065884941225,56.8635315515771,56.5409240826741,53.2172835992291,54.9229124543559,55.4628590240379,53.7907690184451,57.4863901109012,56.2129700016483,55.5978551456321,53.1422036746252,56.5876946995731,57.3542679029783,59.5310543485935,56.9196941755809,57.9884746747505,56.1915791582694,52.5110259717502,55.8875428457696,56.5363290285258,52.0467611113533,76.7800129854217,54.8982584332061,56.0441882966707,53.1275500134037,55.3522584561489,57.2234952724089,62.6354391153489,55.0695868868423
17052,0.294232286708884,0.297221511012761,0.39304508520078,0.425129747078024,0.45450259043944,0.509544191656131,0.47093646884035,0.472955651760233,0.376636239436884,0.40352060039468,0.484096622045348,0.498480152309689,0.654225916772492,0.498760057821994,0.385739699782927,0.365200524188189,0.451902688698572,0.426350070299319,0.428844825813021,0.640484459749629,0.758728430420209,0.693878862786782,0.697428200484322,0.708869361524374,0.575861577352661,0.4698128037127,0.570850762416159,0.627694329121541,0.521415010677513,0.610128242854593,0.503870569554211,0.741720436896949,0.635158776932524,0.767363555912969,0.65084044287768,0.827337899187592,0.790727592761881,0.79403935740887,0.825667834773157,0.858453221774225,0.834510843835429,0.725805375363528,0.734598173819471,0.777566074294804,0.727185437740694,0.846793898043475,0.82997045214598,0.798142998912489,0.751288871815442,0.596224623966314,0.57686384868477,0.665911003121001,0.466221730630298,0.772493491498807,0.962457915828403,0.86067548088218,0.819841321146491,0.795442859374677,0.860325609018322,0.809540942114871,0.877107515626427,0.960165567210203,0.741034964881451,0.80282702475734,0.756628959860998,0.984467718222827,0.818070051911291,0.865499947020944,0.672571359830406,0.509296642172549,0.520736947504771,0.602791466823297,0.627966371925066,0.432747095592854,0.449701115576798,0.487554352955488,0.490295071644728,0.565851495032398,0.560886501594861,0.529220231789236,0.451989858251548,0.385993451123246,0.436136854417097,0.398165061640551,0.380179582846649,0.302961445628269,0.48556641964241,0.388597378458032,0.334410687683619,0.320435013916538,0.335110394551443,0.360502806472628,0.335079629504492,0.413621039420361,0.352414417807067,0.352457176706307,0.353640212995086,0.354517595706073,0.32263687582114,0.344450531833291,0.338714909369237,0.349015137516503,0.336957284635991,0.333673814043605,0.3387918156477,0.323587483998494,0.379308838173679,0.401003281430708,0.334936793173599,0.356549143269726,0.311664639630613,0.307252700811333,0.301848782718062,0.305832461471071,0.338722874839699,0.311470707244615,0.418755226175061,0.383828719113817,0.302041450642213,0.33564486529817,0.27182361955521,0.273780476230718,0.258209575767036,0.26645367089023,0.261242653979855,0.282226861483321,0.308163375606844,0.298437685482507,0.245109125932202,0.234760665887796,0.296175423002636,0.391544338363777,0.616887205818892,0.427669739510892,0.538507337056923,0.761727340262717,0.494371937933733,0.5588912623801,0.612954479127393,0.841801502328953,0.747048094282732,0.729434646589525,0.813442947668526,0.657037519199465,0.634129790702717,0.573175435751539,0.491896600876711,0.496571213359828,0.548756428202797,0.591252358655318,0.666869144400893,0.816311340833511,0.834947258443741,0.679737712588927,0.593522814715723,0.626652672614459,0.539295290223645,0.501981819861889,0.481820137159323,0.413046315019147,0.433973705860416,0.435120447085356,0.428620950973081,0.309797980648654,0.429788161870971,0.334229243880745,0.296180940600979,0.335876818458783,0.272882284533404,0.309435055330501,0.201822880728006,0.299865598763985,0.304304155497893,0.247494880714834,0.316085705849424,0.233764887316055,0.31022440919534,0.295985506768308,0.339445712482535,0.305670650620326,50.3426341172055,51.1025426574729,57.5106318679472,61.4209295810564,55.7834806287757,57.7620743489284,65.7874553949937,61.4792299031387,62.6341557592827,53.3438593920162,57.1658248109985,60.6456359538753,72.3745518738988,81.163171326399,75.3372650434029,63.5267081418706,58.6921286337822,77.5471490721787,70.1042988886929,62.7424516231234,60.3993802497956,49.4146849489126,57.5058804494114,56.5978397294023,50.4689794547203,55.4433568778731,56.3719549156056,61.4508247639225,59.3806777746047,55.2449785465898,52.3047278931048,50.3755967486935,45.9476993702784,49.5473314109976,50.3623310536762,50.4833151747154,47.4977015486157,50.6825111580401,49.4369667737539,50.7244387797028,50.5332634968667,47.1890956019192,47.1154918120925,48.6983954749682,45.9690638765448,55.2960098713772,56.0125388459058,47.1333921918472,48.8999268671579,46.958600697523,51.5040407731539,52.6675463474059,54.1025364690472,51.1532813623445,49.5481392927547,54.3333757779141,53.1190143691012,58.1058907941231,55.6148651314653,50.8339611409858,49.8591236437502,47.7926070844625,47.5326578033012,55.3973118355757,47.2251007327442,53.016851802751,53.4682992487114,48.2738972207679,51.2231477040674,52.0245846180187,51.5526448309781,72.1859317792121,79.9518989184405,126.561397130308,112.456672016037,111.694606436236,124.944026454038,137.485727374254,102.950114965127,109.010239749894,92.6173068452373,71.8939753101622,111.199485200939,113.508479109994,71.5384919595565,47.6258977920807,101.816508086391,92.5798752607313,70.7861639631009,54.4371562321914,52.4426131059121,54.1700127420178,80.924266735197,110.321501642102,53.1157927128632,56.5427158429352,77.9818812789726,57.2145197441394,54.4364415425821,87.0095904310262,54.9839257730696,72.1448980489242,66.2293148719052,93.4611362175261,56.2859371101759,62.2001606195487,59.2718963077745,59.6801070358832,78.833574746832,86.6105464059256,89.6207015315944,71.5023066872322,63.7279872833843,64.4387600064535,65.7950752708149,60.907876552687,69.8457900534658,54.3147110704768,53.3264106506253,54.2777402711034,60.6186843587172,67.5123374412512,50.2219327818744,52.6774790143921,58.0285737605711,58.7795826527783,52.9743777373981,51.8796322975373,64.4944445630017,55.784414447372,67.5177027180588,59.4588678015585,65.3655104998048,88.930118828438,67.5225071132293,54.1472564962252,51.7470199560761,58.7383944398936,56.1709777689765,51.1043834014847,51.7870378809374,48.0636161695655,56.6373827816843,53.8907069154636,61.6588888375158,57.9626081098342,58.6140169227239,68.1312605926876,71.5118438805719,57.8013992726824,53.4293928924112,63.7722698713075,54.9195153774706,58.4884559989377,62.5782045624432,60.3897027231107,58.9556026983565,57.5498590428049,58.235743101242,59.2812500662896,55.0657211202957,55.9794528021572,61.2836453473211,69.1616538396995,60.1047834257864,58.3454804605944,60.2224414106634,59.9240137784408,55.1091543436524,64.9057190735982,63.5164336232111,60.965060164503,60.9816779692496,50.3812445590847,57.0088293868577,70.1303981301822,79.6344705580308,62.4091250623239,68.3727979360245,54.9807884762519
17453,0.301980104451027,0.27451107143256,0.312014627088779,0.310818877180557,0.318550124349111,0.289254690626651,0.388416402966395,0.495823611201246,0.434780162143952,0.354826909829088,0.315758049275158,0.293688908360743,0.425749108139115,0.436248747941351,0.596387996818785,0.748534808174293,0.804963608982951,0.647957426642925,0.708054678516031,0.452123151392666,0.445250227996301,0.490933770335607,0.341735488954989,0.480328554975772,0.491659270602581,0.32929874475813,0.360182079547353,0.287403617872885,0.297675418959462,0.343926877600695,0.284068961116918,0.379307304526803,0.474289598785214,0.598004752506561,0.35092977211463,0.432879239566173,0.34157306538712,0.439155089900629,0.581293696333196,0.477443565635353,0.436418259314873,0.541164681538425,0.413917741715703,0.305247412890337,0.278592377368492,0.384595692545427,0.277975064601175,0.346106768940102,0.374828432119504,0.336605352039873,0.28559852246463,0.373418340288542,0.487291756604816,0.520121309572254,0.554506040286818,0.500716711719489,0.468560233038603,0.512232544463651,0.52062020014138,0.411364317980159,0.450917323890015,0.395650987236514,0.362896160758754,0.397843600160505,0.430480996013383,0.549991340233283,0.512717812344871,0.535255293145477,0.313632758548877,0.298100837822584,0.314352278179846,0.355314714184544,0.415547076558904,0.365671660823157,0.381161623131721,0.476908121908603,0.448643330372332,0.378036631655397,0.393787600975959,0.319743381277008,0.425903129072763,0.354359519915826,0.363399222172249,0.420485149605994,0.482794895351858,0.377505348485508,0.265389692498519,0.385611513504729,0.501807837678191,0.466253003603235,0.510813230579764,0.54038744549665,0.521728730360049,0.477909578300613,0.377641213189755,0.442419840481308,0.39536123872431,0.339659372587683,0.375203862610068,0.455091854154855,0.496953640850546,0.510884622313683,0.476516490825859,0.474199157110549,0.595934838614536,0.593214837842608,0.638566240881874,0.582219337742592,0.466428176626705,0.420683224717029,0.380152956116091,0.380030223564527,0.518270941894677,0.537275740621941,0.412770556408404,0.477584735338981,0.614737685832141,0.685222494625026,0.580719980498587,0.544834538219529,0.485458784049179,0.579176714814422,0.533412226400893,0.497069010347325,0.494745052410098,0.453138145279031,0.542467024589352,0.528386960040427,0.571415721241529,0.488386717458316,0.602012633393804,0.559774791513338,0.570635985035284,0.514564269058127,0.561674284877952,0.567268044601261,0.475837836187184,0.538114870017369,0.510417791133056,0.504076861399838,0.552224565116983,0.562365452868662,0.693368558268114,0.587288347812474,0.543125348269888,0.51157915288822,0.562730655029408,0.469142995477894,0.638997436210438,0.568695716495038,0.579439113920979,0.474101535508023,0.530275436222078,0.548540941551398,0.56236480781575,0.41876569184296,0.585442377912181,0.567659703827454,0.521255765515423,0.537628188362747,0.55344926632385,0.654968497149113,0.609622595068805,0.662321474034732,0.571844543351097,0.613158855428107,0.670936312716035,0.562174259321211,0.653925775095404,0.731408745021551,0.6282637504706,0.694522223746693,0.645804317098915,0.664132936165753,0.681705850335963,0.820786476234089,0.772833523721579,0.716988096068025,0.673587726641575,0.764211256634681,66.0875695558765,56.7940544882785,53.0738214259017,51.4633939629297,51.2751837145754,48.660049698889,54.1668793276145,52.0223304236196,49.5277821285124,49.7079655352774,52.0646065405922,50.3808266005659,67.3274141390271,51.2051027778246,56.0775329722649,53.2775436885751,49.1357316425838,56.3196719043018,50.0023141006652,62.6906634941142,65.8202198101133,59.249469918943,52.7682024005925,59.8941561581112,54.830702976739,59.5141262659088,49.0635540724849,49.9165632682624,61.6477372292013,60.2069425421235,54.1213877071157,56.3803570603136,48.1388066251722,56.5215284204629,61.8475802879149,58.0385390264001,53.9439972931519,66.8476599885703,50.6985224562335,57.9942928210431,50.6795103952318,54.2863613090269,65.5967153344308,52.7487531639367,55.48407407358,57.0016544925283,48.5538849714591,57.6579725416898,47.7315912266872,52.8352199870587,62.226098849432,49.4179329112694,47.4483179261623,50.9409753972768,57.3901399092332,48.1051509175576,48.6353901548779,51.4027673114651,52.5796474749315,52.4494008647375,49.2808850696388,50.7663703534079,50.2936843624593,49.6279428529478,47.7835077808884,54.3085773336078,52.3342218342153,48.3856111570149,55.4151127794126,55.7279947775354,49.4063687158503,51.7057261350468,52.4674352997519,48.5205196199727,53.9137639044554,49.4195758390271,52.1625664553801,51.8216132888901,50.2972692898586,52.2220606258997,53.2932880517486,54.5438102090704,56.4533240805056,52.109861512101,52.9755226281975,75.4202469689014,52.6746237983028,55.6644629232671,49.9290604633559,59.3538258688633,57.6307407643721,49.3776738598643,49.5942602597422,50.4145507546404,56.9152172939505,51.6509000584999,49.3562606070161,45.6924889423506,47.3883817907977,48.3987348765024,49.1696312332351,52.544193698297,54.6784490923032,49.3021509991092,54.5252645274071,48.7959546452392,51.7977059855369,45.8606737106993,54.57176915159,52.4900193671642,54.5378941554883,61.3604299503653,53.2801526689669,51.6593176533242,59.9276951481352,58.1395221936953,55.2888481015293,52.0740788396095,51.4542632371385,50.9912521960544,52.6148077556589,52.035133548685,59.1915532877505,59.6193122599002,50.3314329016085,54.3811767863396,53.7011220115644,54.3847916423363,48.8220272695507,56.0441480653702,48.9229001874788,46.249014785295,51.9842735690166,53.6300625262013,51.22408627621,49.4065442922655,56.5052237757234,54.597994063502,45.1484521525602,47.6604892936728,48.5902361764287,51.305448361172,50.2377320445628,50.1226360028991,50.7895139991586,47.2942284011381,52.3656949512229,52.5172277887938,51.8027903009538,53.2290107328393,51.2699731883007,49.6686689532635,51.1286039718113,49.249507458997,50.5800628691471,49.4420743189182,53.98157175212,59.4186697995586,52.2135246670137,49.3243456422967,52.0042310993169,53.234051927309,54.9857288935842,50.7898911356242,51.8233472607739,48.7353474739575,49.7976421953694,53.9927813476377,50.1429274427706,51.4328954445069,49.5367826225604,49.4397189746191,45.8394286325136,50.9356193136603,45.2184431092483,52.9383671052089,48.6734081696286,43.0628429396819,49.6536012325259,47.239860844814
18177,0.97748792164235,0.907939221827165,1.01982471321285,0.91932214188153,0.962127170421323,0.903570961566054,0.936645064686184,0.922526748877134,0.829495684871552,0.893565278779837,0.958850346292951,1.00680860929667,0.86327609145054,0.906666228010977,1.08223783080435,0.959419672458709,0.867709736329597,0.970245220669583,0.923560472959146,0.885377293622719,0.971551091041889,1.00528826634604,0.959754932936054,0.974548145224102,0.96385619144051,0.845736082767183,0.866960004864875,1.01114180584652,0.978025506982125,0.910131906703064,0.946726615471704,0.95175230530953,0.859660171945882,0.825750057840649,0.993705675899266,0.899760114132605,0.875590725118148,0.9261453303403,0.921214397686939,0.912103974180328,0.977658094191153,0.970926000952744,0.949314583438867,1.03038362554237,0.996680742355409,1.07854885523499,1.04096117084734,0.898938340532281,1.04649636034305,0.975862119597131,0.725413066238694,0.89009637827048,0.875821053032389,0.956717303310181,0.88968326957887,0.974917036363906,0.862243047386758,1.00469270367207,0.783798142734916,1.11487161320093,0.994044802961932,0.872689158904015,1.04994809066668,0.946040314997099,1.02876971725917,1.0070763565132,0.861105109055749,0.841293580775248,0.861490075817082,0.94804585600228,1.03283572348175,1.02424974622119,0.775923953382653,0.855474520824449,1.04492324647013,1.04373795025856,1.06092922673426,1.01510238793413,0.998583559382209,0.917517228509524,0.993827431867725,0.919482620223013,0.826676769639239,0.904415562223049,0.942572920556488,0.891062944256038,0.973630040773658,0.950556121635655,0.899035499503156,0.794133735557994,0.949457280099042,0.918015950902155,0.823670826747163,0.893819311956793,0.943004329473804,0.951151581695424,0.922688768611785,0.872206170180582,1.01343317269521,0.783642270639014,0.842021409913703,0.870508568236833,0.947683444282018,0.875114591173164,0.930987020211034,0.859646549679537,0.867859319253195,0.745470302167372,0.894373740405503,0.782137549854093,0.875623336918601,0.86117320056096,0.825581017987999,0.754832134522621,0.992066989567067,1.0105565376977,0.785667872604971,0.867855165497976,0.926719395272767,0.943245418056539,0.818970051076572,0.867832372209387,0.870570718376045,0.923130006394955,0.958084662561653,0.996276175723519,0.824257894438948,0.97454924910813,0.934996325988302,0.804647035246623,1.01461385982678,0.973656508253198,0.995211988044851,0.904532064339105,0.953212593440326,0.950964931840158,0.939562549395058,1.02481518339952,0.958926565134872,0.830829612666108,0.882767229377031,0.996628737599528,0.935184078707038,0.978792502252283,1.02279604998907,1.09795619600429,0.855522159645857,0.957830186059873,0.902831088883571,1.01816526351264,0.990415834656585,0.961186213978169,0.985029771532184,1.03086937954263,0.949143485201696,0.882296777908112,0.88928149758444,0.859312545555654,0.80592345708218,0.811790217230366,0.782723875531967,0.98639042722047,0.798759479063804,0.974896230460598,0.926623168663472,0.858955312647454,0.785803326675371,0.862868260769522,0.777223157702143,0.79000029580775,0.769436635748262,0.833000514163528,0.823159993542762,0.889450230301071,0.874109879102402,0.872504256261526,0.946684795003742,0.910703653922974,0.864573199341233,0.84949556070129,55.5436515007279,76.3082303097467,55.4207360736452,58.7626375006847,63.6220230607867,81.908080679931,71.6154992345961,89.101321028761,67.5098149696288,54.1869259264014,91.5689255998174,79.2753893903933,66.0615967672278,66.0818091665113,49.1310924662236,54.0056645557155,92.5805066310857,47.9764726296425,44.868390786277,49.1352414827447,54.684893945887,63.6772063855458,71.7331465062797,49.7346271348215,54.326435889816,60.8756371166529,64.0494462893259,51.3356659152753,64.2939737273743,50.9124387257893,59.7692515304911,46.0816596624237,49.7074544583548,53.7867543104464,61.027511470908,46.7632209248702,52.4518343802455,50.8490922989887,53.2844184763632,52.3276225710542,58.2726711051603,74.6604068507618,65.8116414452253,73.1703775233261,70.6860891631734,75.0438383246905,49.9813177291629,100.12712547215,87.1868879465566,65.8581495209504,72.2790775538994,90.825836890964,85.1222729695123,78.6254390158124,85.1055795853032,66.4240242529295,71.3329809214921,73.2369258320105,94.9900929151966,72.0240328748869,64.3216162808404,79.8471746130017,69.6774034358814,60.6378653929647,69.7277096005635,53.7758150936332,81.7967807459654,77.6345076919372,93.6594203480923,51.0651056195511,55.9295843372649,59.3505000388149,61.1140882526503,73.677315369929,63.8409276024959,53.8924055788999,56.0045957393319,46.4719926433186,49.9411652856946,46.8846639553718,72.9615520904692,58.33776207829,47.7389511066926,55.544017203976,47.9161668868416,52.8608661215058,49.4926741892079,47.3441900012663,48.3453845853722,44.3184054419027,46.2096563864414,45.0396704194967,43.3870779678373,50.8299183750928,46.71282741304,45.6121932554064,49.8579238213265,44.8868215357434,48.8661593037455,43.5929506289229,44.6147937183601,45.9819551897113,46.418122483248,45.3049260222838,48.9970537874118,47.8403257917643,43.3480004299464,41.6898180423055,46.8935015701994,43.2341921317771,44.9548836107176,44.2508936381228,44.4268331876062,43.3670223810696,45.3297057159123,50.5441006343411,43.3367573702623,42.7615840124625,43.275958830344,46.5503315884651,44.8069856970777,45.801051378289,44.3793201871331,43.1561599666707,46.2034805346893,44.0475273604603,46.4350983559308,46.4007754146138,44.6068449598273,44.6756162506868,54.3955717783811,47.6227990148863,46.8786882157655,49.2088956675549,46.958253801157,42.0163352352193,42.6684197191565,59.9254440803027,47.1025603243156,45.706948421888,47.5948961801913,49.5962962812525,50.9713465402933,45.9886360126726,48.2228829175618,54.038017657109,46.6597090499191,46.9545414885255,46.8799866867291,43.503089923469,42.7907363237524,42.9337011511006,48.7208380230398,46.8021692867319,48.5407181290176,44.5178660201641,45.4079041150068,43.8419145068118,45.8065584222536,41.7917344741787,44.3435205608106,42.5416600539048,43.9301718172486,47.6180687020814,46.9819293333264,42.3347847561239,41.8762887420565,45.4017337839641,43.6327197970863,49.4343446961768,44.8666706356091,44.1336873753279,44.4095550917533,45.3473607228656,44.6943414819784,42.5242664121107,45.2330615776463,42.8138782612885,65.3574432917175,43.5477890919431
18184,0.961916662512534,1.01511811772896,0.855073334895845,0.904943883942118,0.935031160319049,1.04030360112963,1.05968720969577,0.868399314726806,0.909188559886228,0.841861939745626,0.899597124492746,0.850844212692839,0.869654780073092,0.794932707253664,0.85667671117088,0.761354304023302,0.830681453379859,0.810584115497566,0.960009864425103,0.723451318382748,0.840481258341773,0.880535513380588,0.782521635252441,0.782621058216259,0.916969904658209,0.943541621117654,0.861860948414549,0.822737690393067,0.878252987192571,0.96512952165739,0.89101263968365,0.909537754561686,0.853962532132936,0.914556555792327,0.933761019926362,0.999627971330529,0.848871789499086,0.873780805661874,0.907980575106928,0.937748126195191,0.958428702432561,0.806781790261153,0.927440115121695,0.843858433086217,1.04461046912798,0.990973578394226,0.911976858718024,0.792265836636639,0.948104312990336,0.751176835859437,0.990061239402746,0.855562370237097,0.895236159702389,0.876681025142728,0.927614102306132,0.867342125671787,0.884771809014749,0.879943767018796,1.01866726511598,0.870011290229631,0.867960227544469,0.790795250221142,0.951736889840319,0.733574295992127,0.773483917127808,0.624952569785281,0.701959741702676,0.734277232113369,0.757701621081755,0.759352040422066,0.838773957757562,0.900602296620077,0.926331893373646,0.724359898802534,0.869460855330932,0.892578027238013,0.879509904730262,0.79368039881408,0.734083143715233,0.882681611314698,0.872740130786528,0.967524256484004,0.885698467056002,0.965869672916981,0.917062442496091,0.863859158792853,0.883183087690182,0.843525289624632,0.764376117818579,0.745160922563417,0.770980861948031,0.772821263462989,0.84643388703809,0.832431603959708,0.758353998094244,0.788807728059282,0.678216840756403,0.805158961921672,0.892670879790431,0.905850563758244,0.998450679551736,0.869793846236788,0.859437764564008,0.871714968053456,0.82073247352873,0.852899722553827,0.889648170012708,0.902028911926742,0.788224087127718,0.853990601800937,0.883251650033889,0.76052537987211,0.814845883130695,0.801237106207176,0.824172034510653,0.816235462815333,0.804973833630111,0.755388777073796,0.803312943152032,0.908719747834097,0.727097178891728,0.800234984208762,0.7402730232069,0.818376282298832,0.799111162301807,0.700502970128281,0.793996352317491,0.65759870424836,0.662566410132571,0.836683273563014,0.965907596103336,0.831347520010179,0.864756886463236,0.879700701779393,0.920856085927082,0.768107565946999,0.822960828039116,0.851972167396213,0.901118235629502,0.866996217832916,0.818998687827285,0.684034084819088,0.648395395090377,0.790211559190389,0.712074681176644,0.749466484197293,0.861291293096773,0.624683323838017,0.66977800405472,0.703865969873788,0.543524363782795,0.608122001304674,0.596885840055902,0.703360459750171,0.701140682381427,0.627488865419208,0.718190250653313,0.71356668445007,0.659558294747419,0.690946388206897,0.720912895277454,0.766686104261414,0.700435357807579,0.718716168653038,0.727568441588654,0.688514267552979,0.651618319681527,0.660924691646272,0.927134444567364,0.733267255930128,0.664210758052204,0.679414942875972,0.616005958847235,0.734632716823342,0.644862957609497,0.576753453681245,0.635982417009702,0.731938317877732,0.629477806486434,0.647889124658044,51.9053378551699,52.9579832342037,66.2847063525088,53.451775739636,86.9443681955396,62.441676740448,57.9139586710163,53.3544169079208,59.6845225059848,52.3001312570368,44.7016760727174,45.3622039353246,47.8575777452866,46.4020743605692,49.7408614868646,47.270236292322,55.6428735374487,49.7906803292774,49.9705734296077,78.4702507162948,45.7435416908277,59.1652539921621,50.4368110933383,66.7726777542766,57.4236598078677,57.0570930753047,53.9568192688607,48.463046633612,50.6991749760028,60.2586881523315,51.8065235797265,54.9166217400616,52.0386632133369,49.6158383323885,54.9732412732883,57.1326908377532,48.9043250496364,56.2750036973886,53.9861754122964,59.5100801156492,65.5549974590388,72.6405950072509,62.5076223346048,56.2608204599919,72.8361141195944,96.7958232661297,90.2349257065592,46.5309551381112,60.8423237422879,46.0486029451341,58.1093318903594,64.6692954115622,51.9010531127444,89.866533374786,53.2912068857047,57.0107631290166,53.382401237096,54.0943764362971,62.4377375844319,46.6180259072134,51.6706544441783,52.4199503711112,90.7576909556154,84.7043169813235,69.2171371902864,60.4714873595155,57.8508851950755,88.0790281195962,90.3653874133494,89.2157824669813,106.112972030659,51.4248616533447,50.1966903754096,50.3189464256869,51.7762000480053,49.1522262045403,63.4403101535887,49.4253455445911,53.8371846117522,53.7596729459818,62.6229910630705,55.1865202861726,59.9056542307441,55.3563098078119,49.5940610876565,49.1561062092151,45.6916066160756,47.9404871608192,41.441666139873,40.3782558149664,43.4508135286097,44.5885583410101,48.0601359633698,46.1501994846539,52.7461608018748,51.4612676896023,50.485605463011,51.0482701088555,48.2384770047224,54.4165227143413,57.9289675460831,58.7060980175842,57.7560947281215,49.0591750046619,51.1610689585471,55.4846870634722,51.7922903178226,49.8565111750269,46.2788711686376,52.1733355189611,57.9332708974945,44.4820233748711,50.9515529602463,50.1919073868442,49.2077296676211,49.6191489739678,48.7965617972523,47.9652653249515,43.6005694672048,49.8753704448952,45.9753999682893,49.6953597403788,46.5226118809069,48.6450395120849,45.5017964974724,44.3142872644946,50.774630325788,44.5205589636549,45.3439547875966,51.831591179622,49.0074384754517,44.7355208513635,49.9256969828781,50.6651887742477,60.1316256923343,47.8145351422323,49.9234516716288,46.3040069644054,55.1519944627325,52.206007235438,52.4895884320256,46.6814383852308,46.9029934476541,45.3816290386025,44.6131581604314,49.2106061531812,50.4734415911915,47.8037905295044,47.9722849089383,55.7045160954095,44.2073400907021,52.3026774411301,45.4316517186189,42.5427031009564,47.4354328956948,45.557372763048,45.3025909595343,48.6544878713732,45.6179931612281,48.6955950152005,46.716211224467,67.3191501288531,43.3637037624538,49.1151637524782,47.8395219272868,50.7766312229855,44.5341853075374,59.4719823749871,50.6796330181784,43.9601493132861,47.2360449898616,48.3362720868873,43.8908964515135,51.2480884592348,45.6119574814658,43.9236682839052,44.4318194068479,46.4181882847428,53.8950951652982,47.2102988884168
19088,0.390749529860802,0.42403579420158,0.410780893166312,0.540353933750361,0.949099463114228,0.882480734329918,0.873034376909839,0.917449720372614,1.07003914752336,1.12856929400333,1.03013561221963,1.16389480662107,1.12290594323765,1.07658293026282,1.11954617909096,1.088615256122,1.01898530733385,1.06835363068972,1.04293490485015,1.03602953730837,1.17460061171482,0.800377365824608,0.856802945333412,0.960164907997446,0.92631433067889,1.17752701421116,1.11987546930806,1.10348906304338,1.07345899445768,0.997170156384523,0.989365163344667,0.861370302570601,0.890234520089169,0.814945325136069,0.933982328414199,0.800500669028272,0.761313195707411,0.850968561484962,0.882276294440635,0.878318515751451,0.95922044888234,0.902630517026487,0.8727588874549,0.89658414859782,0.835353693197483,0.787743765069931,0.833329681829966,0.978911996365068,1.02463894293131,0.908443375192178,0.955998915875888,0.893566988841688,1.05875237845761,0.873059496657533,0.783007019176569,0.852162912844224,0.775564182980506,0.869689786692843,1.00375155238931,0.975013335354528,0.761614906166544,0.943221089997183,0.953308652435401,1.09772471464534,0.974301838318814,0.895853407576177,0.928021715365468,0.809861655497941,0.743053052108789,1.08413236603997,0.80120818355169,0.984446416761717,0.991247296829156,1.03170628212397,0.86108581962555,0.928331531934783,0.900665539693815,0.783474114274852,0.915679060044814,0.85635134203392,0.830476539455058,0.805328915414649,0.845548472659623,0.93276725251416,0.917457939374617,0.948427390807929,0.83254444731711,0.896590858809365,0.931659544041636,0.771624703069021,0.819237800987314,0.800180216741264,0.849848496594686,1.00508323182383,0.972896430486547,0.928695902251827,0.936002664279687,0.865099756807413,0.911452500482774,0.869878889966373,0.81430039966442,0.927229041483306,0.909086596560385,0.885251961260304,0.858429855754016,0.887355484458327,0.863635605653214,0.779916015942741,0.829665482303344,0.8149532578454,0.821757982366477,0.785991485915682,0.8229196931691,0.722007681130418,0.781061226257374,0.830656299948183,0.808371819068086,0.813148816707719,0.852551024096683,0.750801527986477,0.921240596910364,0.922353502827627,0.815063107911068,0.80765361254172,0.82346948554006,0.96965020842893,0.779340809944228,0.874475898762868,0.915912666533088,0.858105735341865,0.816636109730405,0.804564074640659,0.839740745130867,0.613741361384455,0.640167830693341,0.523692829836356,0.600909746712649,0.641487962934115,0.666485256252003,0.504762504028019,0.562723400766864,0.531949807542809,0.789220202070708,0.683626867121324,0.680723284999213,0.681939551182526,0.622481913491467,0.777142656944732,0.603555844152335,0.809829258271807,0.632362239570597,0.784177356027547,0.704017953693475,0.639409988106719,0.593188621140888,0.814583334960687,0.849307305451986,0.903930362620422,0.724625582898788,0.667929896463223,0.633716541973775,0.701264258144877,0.705806913707285,0.765192611133261,0.760699976118735,0.82510803096934,0.794016657060834,0.798879670608967,0.833036407408227,0.789630506681644,0.792795325981406,0.787707933260758,0.802058080309528,0.796207926682167,0.752586150485958,0.924249594026482,0.798075326102223,0.780795122238707,0.955318138792171,0.837465476920345,54.5240579588642,54.6046464722967,54.5089412535045,115.143214070557,43.1175857394712,40.5807063460279,45.9514674148148,54.2740999332494,46.6017218174621,60.4859946176382,45.0070079506831,50.4198639515088,49.7892763970907,50.5708116667496,42.575492385538,46.4634901599687,54.2718181041629,52.2963528625155,52.8293377476979,48.227474033498,46.1618007495974,48.3866772622116,51.2905787619907,47.2148542081303,43.313324283975,44.6743161605898,47.030209686036,47.8266930553106,47.6348223203415,53.7530698901255,47.227839484993,49.7725649353217,43.1140754215233,43.3319926206243,43.1927687067102,46.7349354976276,46.498612044559,45.9550832922777,43.8163685068264,46.8596717675773,49.0422455757027,47.9823127288194,45.033026529634,45.0537666797687,47.0057766161761,48.0637595779726,46.6819270396511,48.0544201193503,56.7072513092459,46.6523014620571,48.0000434292309,46.5729383531792,49.7891899908578,48.4643853170703,46.440584637018,47.6279562228062,45.4772600449246,47.5175710940848,54.8861508494753,49.5997697439776,44.8556442636841,45.2298537168511,46.4098348323123,50.4904391298022,46.9633311268043,48.7194312470263,48.5804696826923,45.3684581444711,44.1673059177819,55.3514594372814,45.5821172424531,44.2663325310424,50.7185019028831,48.3629466823385,47.4607352979497,46.262468864339,47.7335951300879,44.6672956645825,43.9903943316514,45.6695657945825,49.2322815783814,44.5709373958501,46.9016885328738,47.5155532952086,49.7024749266769,48.4306456658464,45.9387437702861,53.227483050918,61.6628193455884,53.4306017778557,51.8393785323422,52.6508628943209,50.9064501459254,46.5707674630963,49.3368128810654,43.8484542971301,44.7070299165147,44.5675692681864,43.6808688396951,45.9016715060563,44.2198683403807,45.7081278235822,43.4061010978031,45.4179911578432,45.1240577908687,47.8236722304203,47.8663075722824,44.025048853542,43.0850208925893,43.4113591430752,46.0241516814774,48.2535544238045,46.3371043338091,61.9353416362722,45.8678379834745,43.2459127444313,45.8911218036832,46.786852463522,46.451752573575,47.0826538967314,47.3861400407451,47.1870480939749,49.5968742182968,51.0406285705287,51.4851839749018,56.1833990308582,51.9616895541997,48.0110652878823,55.0539373873771,58.8190734406037,52.24328104752,52.7087715151894,54.010220792293,46.5484675588595,46.6102667548479,43.1969785881425,42.0247790163963,43.5149158560076,42.2921762528958,44.2437133095181,42.9831722801178,44.3510470660423,46.8113340965313,44.4974030613193,48.3042427858768,47.875917248003,47.0638553557781,45.9881896785644,44.2181965941994,45.925941214141,43.9337865068507,43.8029265734668,45.5508652306019,42.6310712664346,42.0795754716948,52.9227811927443,45.2293708834532,44.7689316127976,43.0530485750461,44.0625663979718,42.0629638572275,43.8443664545231,41.4833620569935,45.7297291985214,46.5742985631054,47.7538984304367,45.2467315265655,46.3453817430704,48.1685475007415,46.9653057488232,44.3472251523828,43.1505823027356,45.1288131336259,45.5849105112461,45.26256804329,50.0031090386955,44.2627582721564,44.3932126905637,46.4981366733226,48.52408103108
19090,0.36757619198419,0.364804975649414,0.425601850662316,0.435447768209505,0.708727237655329,0.684736144771639,0.738070142577405,0.715508332586312,0.748673764460129,0.701670729449853,0.689355641480328,0.691996484374673,0.730365802357174,0.783678857483902,0.851200746398942,0.956924264567725,0.842120562500837,0.732920087687396,0.871945530196525,0.744685878323123,0.696613866579594,0.680841682045867,0.66995668259877,0.661235716724943,0.64664205057885,0.628380320386176,0.62171052508667,0.650613113757932,0.645276074391652,0.605068680360153,0.655855995434075,0.647435554207471,0.641438708621926,0.594801596719182,0.673203540331967,0.55846857982231,0.761077821344673,0.758129750984051,0.734221322330288,0.763906038788668,0.800006434312434,0.737690293551055,0.685512673989402,0.746809200851348,0.666099300453816,0.639099663092923,0.635948684149897,0.775031160063624,0.691415709567778,0.613510062314342,0.588643794266117,0.655190585805889,0.672766501488434,0.720858508737186,0.617216496922799,0.743442524401375,0.730706175302856,0.656017708576188,0.577287944318362,0.597614957910456,0.711806218674589,0.650846380886462,0.619697380111324,0.637254828838945,0.614161478999724,0.646830720060434,0.686457615033776,0.649446535803814,0.592464908351066,0.626296781412117,0.623150320017884,0.6996616778581,0.637826586087394,0.62177454918737,0.687033494467977,0.581998884468462,0.579344376487309,0.623384503524077,0.645814250143848,0.638440618757994,0.654808988347808,0.627029566701446,0.74826733114108,0.721831468518392,0.761881472357404,0.819584601380173,0.675700991823447,0.680935153587996,0.844341901983004,0.809152464925113,0.787298103328757,0.835033256478548,0.933131149669403,0.870824211776189,0.807980991766692,0.813153710500407,0.723112400192489,0.692251240333235,0.760845187471054,0.745286398961857,0.72445000696384,0.811484184002396,0.800330548275341,0.708998847910484,0.708060954992353,0.729423331880441,0.682352133590529,0.701178474582661,0.717531758174064,0.705379897447378,0.695749947111233,0.784603226345191,0.707426210641909,0.783127043714672,0.7464230964132,0.738091822768999,0.671524927260935,0.75629533361047,0.76375539355469,0.667431399456726,0.720776211223161,0.682862925335034,0.5941080401325,0.644239812571047,0.78896666155969,0.682546872517798,0.653810488685483,0.762379173768025,0.72945070408886,0.781335399825655,0.641296618295203,0.666779792741353,0.715710066566932,0.729117172075631,0.667618048352979,0.644096225110605,0.587135329115506,0.612079086880902,0.58011025533609,0.615855956682028,0.680712164469771,0.789113785751477,0.684291744869432,0.707668146210392,0.748240480205683,0.566677413835981,0.586431471992921,0.768659693691329,0.823417459805027,0.758709403718877,0.671350274997915,0.694300238294333,0.617521727970795,0.808208939754925,0.767010023590276,0.755605482377289,0.740591097143316,0.729056072045491,0.723297931420894,0.736130133291289,0.704380587192204,0.704968363597223,0.714117602446377,0.714468374224609,0.648535621296882,0.752052062000242,0.660554575717182,0.672854866773742,0.712500000304979,0.746590029904908,0.622377271343013,0.674205237306195,0.773543683946953,0.721356807623979,0.692487442189525,0.680731009885236,0.693076997285867,0.684361921929422,0.79253570596432,0.664742963631624,54.8775845954897,54.8381838551065,56.2213385378533,106.008748716647,44.923560649151,43.0161581406823,45.6625454905567,44.128849057846,43.1985061247496,43.1607814296268,41.8696301505366,41.3319262851897,45.3131240237442,43.0498656008323,44.0101365234739,43.8306803265194,43.9161524697017,41.0660325034242,47.3110926116945,41.216246513177,42.1904458591953,40.0598028252791,41.3605139671467,41.1978138660865,41.8991022461203,40.3766904389978,40.2740501364359,40.4634229307439,40.3339074648081,40.2192753505421,40.5812736214208,40.2670142087183,40.2100956398012,39.5042317366037,40.5448276724428,40.2369492428156,42.4926860349705,43.0493926363559,43.8182565799898,40.7438511319322,44.3958655170097,44.7447139828169,42.3506562037517,41.4485559054892,46.2932918012913,44.6031471944439,45.2037726566656,41.9039950457449,44.7323713624719,48.2567948721592,47.4082339834861,43.40972475917,42.9074735543354,48.2898922385991,48.1096636580909,41.5246600173283,41.5287609784451,45.8967323605836,47.3471512874008,46.7024918013477,49.1586364374635,45.4743085612045,42.7098850817815,42.8824912140006,45.4992385492701,47.8063494716621,47.1410975357576,48.5573677882316,53.99030513196,46.5640096856652,45.8277559334753,46.5085529382995,42.5993765465462,43.4992622600923,53.4336339367971,49.6608257618541,49.9802737139506,45.5742990732734,45.5497042220504,53.8487085747406,48.7279376777191,46.6106047754263,51.8311990693881,44.8221583096381,44.2835706947541,43.2819761012646,41.1732280059416,40.0870251361937,42.7868815691874,44.1317544829099,43.8146742835551,48.6134762243645,52.0638200291004,43.8545527633675,42.1603808586115,43.1073951774238,43.3684639785387,46.1334325407426,42.8864072246553,44.456690798788,44.4328942659469,42.1652120163539,45.562721870955,41.5802830905937,40.9886281430717,41.1360535973527,43.436467502059,47.4747721956957,44.3160713551562,44.1779712791383,44.0815013133378,43.3048633007406,42.6885211720705,48.1103937208674,41.5866451024255,44.5300700434247,44.7874306434451,44.1699433650796,43.1666559477671,43.6880504276559,43.0165613076142,40.7148643095087,44.3615806029512,48.1615037613541,43.0541402779117,50.288522220196,44.544616285871,43.6481843543836,49.7101331029212,41.9334768470595,43.2153696561806,40.6909609802904,41.2548896226992,42.9793573444572,41.4255445130082,44.9622953506112,43.6118837398818,46.7010789640565,48.15821302255,43.5724898937649,49.0081526159317,47.6697823541254,48.8787809034402,46.7586760802096,44.2364952366631,48.8592111153845,49.8308771216046,44.0761595035541,45.0595704701452,43.5353431603526,47.5583633491514,51.8975678102273,48.5143715549227,46.1007208954959,42.191624297923,42.820716190364,42.8679954704525,44.5486624113037,44.6614847993745,40.4921366683834,40.1913090958969,41.7078966992766,44.3348489091647,41.3506730578097,49.4100455973797,44.9436763749754,45.8734659967002,45.4563065641669,50.3615756592334,45.5515438430133,48.6347519683078,46.0091192176151,45.7827553499604,45.2833402823119,54.151138493874,45.5892183333911,44.9590546109766,46.1226914477392,50.2414235876837,45.2233083373122
19093,0.344169725000157,0.337923188254528,0.51313802945511,0.53775232342667,0.496621838797949,0.461029961061192,0.485067942540319,0.544578843510036,0.4959170166323,0.520739247884728,0.504512715744349,0.526345683826176,0.526185133172975,0.532939840749438,0.519409248105195,0.491962220653885,0.527685251763407,0.44839315449763,0.515089043974322,0.550558378563423,0.545576386987376,0.506528907506652,0.558931890835276,0.472669974298928,0.545467271958105,0.502925678471407,0.494065863792052,0.599306199042502,0.458306415125109,0.519124426580686,0.507966507727657,0.513726635552641,0.585540271567112,0.568045541227925,0.614986597276059,0.482613015979574,0.618586561685709,0.531836047062721,0.445258112677441,0.472902537041003,0.477379732838394,0.474516774502957,0.437338222994107,0.412286603245972,0.441840545023215,0.451135202644622,0.463309568050497,0.474049606650708,0.510247534626736,0.492270654958389,0.436443797802848,0.43226159347363,0.415710082745139,0.51156413370338,0.549044134627905,0.4385072259785,0.468860690913588,0.465452534610796,0.488021151094388,0.445894813102351,0.551043656487981,0.581358417480508,0.476762199766751,0.52734195159409,0.638706106368378,0.532670252243487,0.423708636563755,0.47599678577259,0.474479176109094,0.453085015952056,0.496614765268218,0.618771399841416,0.574772037012754,0.475673319507836,0.574908970442619,0.656885709681107,0.442010788270618,0.518549936113415,0.531277678917826,0.45385747540673,0.43833292056446,0.45340947905047,0.587340882262882,0.563154186752733,0.464279486004349,0.464056568358508,0.495263224005552,0.670848456746602,0.601730648911312,0.453416880235753,0.469643737957063,0.47511579545221,0.485882525834153,0.459137486688685,0.427575926751622,0.407852544043439,0.456649769319847,0.457449156834607,0.455568765885456,0.516591646246595,0.492671338229498,0.439881818702946,0.443088190316481,0.46632611535271,0.432244506674259,0.432071290317115,0.53472553019135,0.552454862439957,0.508855574545427,0.514872257481076,0.544489822838001,0.420496209481501,0.496523798042391,0.44271540145406,0.543552832362521,0.449974795500871,0.511439681751037,0.701778093192034,0.656171789997529,0.524381213412621,0.529219721077276,0.468857344886062,0.463379797775314,0.499162383303879,0.495699139032637,0.46703809786726,0.488503449749522,0.494094536140702,0.490116832810248,0.485207380147775,0.44476334802233,0.455281278608134,0.477086988918726,0.49398442907021,0.431529488664643,0.489275943920149,0.485902732631613,0.477080982204312,0.568200627265136,0.70564444615535,0.556384714951828,0.496399360679187,0.461520958495462,0.586368105345146,0.508225672767259,0.495390684653133,0.47177886654698,0.45701928469025,0.473848540790948,0.529614272558548,0.454169998486019,0.478948120829527,0.52554055377874,0.420668474255977,0.521313237037905,0.537746760932453,0.550047842910482,0.599145528922281,0.546731897321443,0.543066670918679,0.488007123973402,0.535234821552019,0.522247168779749,0.482742525816695,0.497380086710642,0.518424118865489,0.577221095678974,0.526181067495842,0.757710290830945,0.622089509816448,0.48855789002461,0.456974758387667,0.517862807089612,0.475036307213781,0.474473586027081,0.452571107755137,0.449149864340604,0.486637373352348,0.509808918154895,0.458118533162135,55.2422294393199,55.226876936823,66.9813532517263,50.805030934158,51.9360994107857,49.6482747403108,49.2238613571907,46.1646466728265,49.5424462481732,53.8465180318589,51.5425349786671,50.4220404536614,47.0860681474675,49.2898069131593,52.2896029638297,49.2858068429236,51.2034814236711,52.8068480410713,49.9537534313153,49.7241429233814,49.4159168909088,51.6332699992414,47.7342377302191,50.8082861445902,52.8476822927694,51.1477426216181,51.757979689692,52.4613393512009,53.1445940787436,52.3080963777485,52.0314446768562,49.5725179546386,46.6158788383848,46.3012364706412,48.4172717931286,51.7959832111464,47.2824048232484,49.0467559435804,49.6700642103457,48.3940487191346,50.2661820493717,50.5178180420095,49.5861750798308,50.9967805565581,49.3306216767333,49.9184902740718,51.340799211707,51.3264971863452,48.1297801861135,47.0436623498852,50.2061109007419,51.6030851027325,51.7534950602432,50.2947477355956,49.9858555059796,50.5142651112123,52.614908998534,52.0090631122988,53.1223239466468,51.8555249100051,49.9556622426233,51.082726509458,50.8434344941828,51.8255945408692,46.8286859382883,49.9283041643996,51.5924808781183,51.2056578271168,51.97551904645,51.147910930587,48.7021706063706,46.7114148204185,50.0995575881034,48.6627364504984,46.0079774315686,44.6790467702337,49.4054572788662,46.0805471969494,50.4114468719037,50.8872909279093,49.3940841631589,49.8955235180407,45.759756815681,50.0084402715934,48.6678242096,54.6161908947742,49.0104312804357,44.3824575879458,45.0333603459122,48.8158750978695,47.5527705621798,49.3662032380899,48.0138556404041,50.6301191697822,50.4446128814049,50.8842970230009,49.3549830069772,52.1067740224268,50.6316783293353,48.0171831612639,50.5584435431974,50.6295851589823,49.708794050076,49.4919391091301,51.5280264605935,50.8016866327881,53.2234331415839,49.2105678787989,51.0809756921433,49.2104613771669,50.101099464359,52.5927964275008,52.5016858385596,51.8743307704528,48.7256303907025,49.7848675504552,49.0901575869992,48.8264754824963,45.0430457582948,48.9255454915961,52.3373099688561,51.4187448576883,53.2038379952888,49.9260527166868,54.354812298218,51.8754607975183,51.452520086281,51.2695715815837,51.0581790118806,53.9478457128617,52.7001667176749,50.8895788058346,50.8532348100546,51.386749661995,52.8286672652925,48.3994027846742,48.4574256438548,51.5875187570986,48.4063032336277,45.96229046589,48.2982564718538,50.5843124425392,50.7004356614216,50.4658789277006,49.8525077142616,49.8136642405424,49.5268548633868,51.6058398627228,49.5153085714038,47.2641137116915,50.5291849875306,48.9497035634115,50.0320095129024,49.7787141814454,47.2527964735158,46.7738654163776,47.5196892089876,47.0150890124274,48.6578995346944,48.2725916591228,50.0583947480651,47.4740730988563,51.6113393526845,50.6493867090036,49.7071072617643,44.7856765458008,50.3485689522365,48.9370826483741,53.3844934320961,48.4613226400425,50.7592926942303,51.2536611016729,49.1817918713646,51.6838819243571,51.6105015442821,49.7485038270334,51.120922681776,55.2682424716736,53.4279450921118,50.681584788001
19140,0.334872625463791,0.32977807221949,0.419857457618035,0.840499033108746,0.942345709821921,0.850359662795256,0.880537464833454,0.840504243037782,1.10704616523391,0.89955854848564,1.17334774275749,1.06199525363076,0.958024532570651,1.00403286638657,0.796146150212821,0.951008317828596,0.907772160944917,1.0519697487918,1.07725890214073,0.970001592278649,0.943276867746409,0.968665239712608,0.90995119136808,0.999631195488149,0.829823641409898,0.911432201086543,0.888710083038613,0.860661912920151,0.873771681957886,0.926428385053812,0.94214180664062,0.944152900681913,0.988973371874377,0.927236701425406,1.02562952409323,0.859653948708846,1.07642927224136,0.934338219335566,0.925444577296643,1.01028291241056,1.00637418253794,0.832546746126573,0.804110234107651,0.933159452983909,1.00257221185586,1.03229068703708,1.12275056980759,1.0354479501394,1.07453080784322,0.823778996768521,0.779613517287837,0.855896923134511,0.834171764181871,1.02130981633818,0.879995762623335,0.820516904643516,0.882975983312943,0.981494828278684,1.0461028122185,0.890667821747623,1.11448734582389,0.921107943488853,1.0031514897112,1.08124323655557,0.840752034785919,0.825242644311062,0.923029733948741,0.918314601366879,0.794728297164929,0.837448817500383,0.869061293896254,0.732656694435861,0.92541428815461,1.03075150533856,0.973648636402825,0.85742306441279,0.882067310778118,0.798830901847941,0.907244954646018,0.891360280797645,0.903776976535747,0.772486179123121,0.852316776530018,1.02589733491288,0.934897282401933,0.925581600812001,0.961431727800143,1.03877540531049,1.00667859752382,0.965512433847918,0.876613708721162,0.796143749605465,0.96686322005091,0.886296889785399,0.909757333067536,0.818785388101977,0.80313494228265,0.932529094699979,0.963636852471353,0.995500528305958,0.982548770916769,0.98182661084067,0.794032213595604,0.897516544576103,0.877406677120942,0.897287086820026,0.900869497862556,0.857139031072937,0.850908438661381,1.06600343005583,0.830298658408555,0.741984166688885,0.787080852810302,0.838474077430857,0.804558985519666,0.849313295727247,0.775699895656684,0.928182801504466,0.883321017764737,0.860546545212182,0.964078166132879,0.832534138174539,1.10793139276982,0.76910858674159,0.993200145765056,0.889315081853672,1.06335655999096,0.968251837635575,0.935197784614617,0.933168769661507,0.89756302463599,0.930684402783405,0.961992503657046,0.778673385915498,0.862367583175541,0.897007588670365,0.847269593833601,0.887329938284106,0.935864721410692,0.968197654851186,0.827602223759659,0.963535483047836,0.9560580886773,1.05263710982018,0.978485579149554,0.887108007104824,0.992945423923106,1.00950492232563,1.00940291520079,0.930730447055949,1.02474280924149,0.904598955270559,0.964724859825341,0.971009868486259,0.960793292276382,0.987936403134664,0.823535133291876,0.810301087538768,0.646124178119096,0.796922674339548,0.806214650493389,0.87574566498684,0.89317809647814,1.02136195131357,0.937746006960514,0.918921966124779,0.834790660703776,0.979169644198908,0.981465947519206,1.01237679903956,0.929453066601683,0.925742002530056,0.953259259456369,0.994829938796199,0.934694718833838,0.875042520382472,0.930001028559144,0.9903945874943,0.923907525563415,1.00593868984128,54.7717717157597,54.6809018178432,54.9176953260447,63.1223184636109,44.4705649053881,42.8762185470184,43.4745879043888,44.1374804193223,51.3071520620223,42.8522387557929,50.5736522360554,43.2068860784593,44.2195021609405,51.7294011631192,45.8853067136452,49.6981465256579,46.1672698992412,42.4957015226812,43.2242975597357,43.2994021070199,43.7776332150189,43.4462148340848,50.7904297104292,43.9711599827688,44.4133756793106,43.3229187014315,43.321065030942,42.4639938878889,46.2396024401938,43.449391100736,44.8689226606875,44.6044923267569,43.5989709577242,43.0167422267972,49.7058409405514,43.9888234526045,47.1247214665303,44.1178530404722,43.0787456896405,48.076922068728,43.9609332074501,44.0752211988022,41.7787115335441,43.9416505208409,43.6843614388839,44.7947144515354,44.3319130992884,47.4879284339112,49.3353101823343,51.3270429882109,43.8082997018386,44.1550330570993,42.7213998865433,46.2978143588519,44.3420192671819,49.9661823195523,43.9536086008018,46.411104023243,44.9867246788032,43.6541401043898,50.2287750317886,44.4853833118996,46.3926969403612,51.329684494328,44.1699073943799,42.3070995916378,45.8863712589223,50.1861862126306,42.5103991469584,41.5269689532775,43.4782755921474,41.4954410020628,43.7745653164131,44.6633102234665,45.2027741062347,43.2924962153818,51.8254833681254,44.0933594606726,47.6290927264083,46.5176966261383,44.4233414431248,47.269945075532,45.3722855105327,48.0950740956928,45.9673193247563,44.766383652047,44.2489512806986,46.5013041256261,51.8604483289102,44.0771069078473,42.4704222434506,41.1763512639015,43.2255035907638,43.9956698326636,50.4593148688704,47.3423589332454,47.4172168687491,46.1577483321025,44.6397466355493,43.3509198639052,43.2862112339651,46.7124513916056,42.8972378488529,44.1328385428534,41.8154732090815,47.8736816706109,47.8637315717999,46.1904012732463,45.5860591491506,55.4546363045161,42.4871179254365,43.7001109579614,43.4640596967648,43.9677747611007,43.7886618383492,42.4187913681216,41.1037802361544,44.0442360186924,43.9702134302946,43.6679170821572,44.4100558593005,47.9153615794985,47.4067634767815,50.3706332534869,45.5536087915824,43.467157835056,46.688419792063,48.1973272495861,44.1226055389668,45.8649556588164,42.2423288044826,43.0590802975726,46.5166712048896,43.6557660104506,51.7837440862955,46.2620702637802,48.5497566601982,44.6780906210277,47.3100136200215,45.2008158599494,47.2108182012289,44.2291667910414,51.3858034642141,50.7678217515688,53.9013811784028,44.1176939161555,51.4337342023529,60.4936163886367,47.698687714413,42.973838211315,50.2795987252707,51.8960871041911,44.8399947739684,48.6581695705076,47.5648270206457,48.0909191579024,43.1089968010065,46.1825007906677,43.2693549169493,47.0582648247823,43.3504268214628,41.4902333381215,43.5425796462117,43.4996348075129,44.1697751172723,43.9963784165677,43.6388277513625,47.8158804676722,47.1248157899437,46.8928682837406,46.6651204347227,42.8844989316727,46.1392844092474,52.7249498495456,44.1975689554809,47.8851238217742,44.8017758792194,45.771807390662,42.8055928402449,45.816897861708
19830,0.354809374124686,0.439877988601182,0.292476641739925,0.704237339362527,0.733618886088203,0.901665883421281,0.854672043209351,0.908195884156035,0.709728689564341,0.814179261012817,0.695221859176147,0.842427546070936,0.737710353717471,0.629733675064785,0.788988785103856,0.723479758122806,0.75488895279009,0.580921224773987,0.660562206274938,0.645877766656762,0.564405779103503,0.701842550400078,0.713860930102561,0.742933055230004,0.735655995430121,0.579550936097698,0.56408009169911,0.451150370596761,0.638354916473684,0.740750881060467,0.613857644048004,0.642628699509452,0.690589745478368,0.518258718214242,0.739820327077315,0.633445045157619,0.707037427581203,0.616843435473748,0.506999025260823,0.725054890384488,0.53878144718453,0.773826109847181,0.808584147791688,0.723803836084213,0.635181206342034,0.635723273982442,0.565317738716884,0.710038277015826,0.68697867914922,0.386349386488993,0.576999808220466,0.51142543236181,0.431439107677562,0.538157533302145,0.640558828793032,0.69951699689772,0.67195469323925,0.694859226652273,0.604194185292515,0.572627828612291,0.762001444922269,0.68285927269131,0.780991693905621,0.763481558968171,0.529301306735664,0.602501945613769,0.713790424735958,0.681737701119663,0.544838766877716,0.653988339189519,0.869120746899886,0.58334429522888,0.624678780441728,0.62132976875977,0.695119039061534,0.749714901019831,0.732939667179457,0.547688047311353,0.5346053790498,0.600431165920294,0.520305870421263,0.612326400044201,0.809685771087031,1.01514852133676,0.733845875485816,0.580768172132761,0.588333272239905,0.55500755972987,0.624801809778084,0.689045717713789,0.754448998401948,0.687004215878895,0.692148488288138,0.665513481295473,0.746505024189152,0.768603779287268,0.743463078307017,0.76743334593104,0.57186425581971,0.549438043784232,0.633402827803464,0.629831330538781,0.780544285616074,0.683587983598801,0.610423527567136,0.620889888328587,0.636250057256543,0.586208340079792,0.724472901518404,0.659448584144893,0.697090379039782,0.553017717020434,0.525074788115184,0.588798091172553,0.686453941141142,0.693294459580315,0.640894930099326,0.631132225977366,0.748038556817999,0.6470035596062,0.582687358634161,0.881948083088511,0.785199983364802,0.706362521962963,0.61771594794942,0.654039500985831,0.64317265574207,0.829914911131496,0.676885708943625,0.77126022742651,0.713055653098173,0.612164397252324,0.64167853872703,0.693415222234977,0.595314682297565,0.621199212064609,0.599979271491039,0.744319746939443,0.721587202645236,0.783411697879978,0.750041389453477,0.803742707885711,0.702490775433642,0.739651225462032,0.78217718717085,0.602246601112656,0.630975314748715,0.731351891593824,0.771953513429236,0.721964569736554,0.677470343172281,0.595492648895359,0.544755445881013,0.710122806266287,0.746873490854359,0.736610284273129,0.965242247423802,0.979688700693913,1.08574927415418,0.79153823781886,0.528508068451261,0.488194796616776,0.617444775963002,0.554931453987858,0.757400174426376,0.6605918043811,0.645068298006216,0.63456901002435,0.594402915037647,0.717116239909947,0.498741038839161,0.587890300519382,0.502645827037205,0.583751903217644,0.586011811078052,0.788407320235926,0.311171724715628,0.805299310573233,0.928054465925075,0.630674189430729,55.1601322915066,54.9845348531426,104.639039162728,49.5227001268795,55.4959030260492,95.7108106157896,67.7353165978177,55.3804382237452,53.7383614931085,71.2225723637797,50.53632584814,53.338462864596,60.2463086282705,57.4275940299406,49.0362932120762,52.9833825250214,54.6590744919406,55.3694432605373,53.8734938547661,54.1630215386188,50.2768822725828,51.4692334513737,55.4300312859472,49.9168768549223,55.2250557124881,57.2708644511194,65.4329815280757,62.016914158479,56.5351363737687,62.7411382510024,56.9763472797597,59.528694728861,60.3310116153789,59.723365468363,54.2948952779541,54.2939726857675,59.9533567619155,54.2677650211836,59.1319074892926,58.3131177220531,53.8488869923067,53.9323839676474,58.1526769804043,57.7868921409578,59.485813401154,71.6611818036816,49.9035056633635,56.9311110599745,54.7583337515943,52.5068547227927,71.3901983417827,60.1563945503457,61.9831827788768,62.13458566806,57.5378711583666,54.5472209275828,60.0772571863221,55.8234229100441,57.814434944402,55.1243411257198,55.3253000464481,65.7418866198432,67.9362075838925,57.2669763900503,56.3902307062895,51.9331746098295,58.9433003935094,68.8119982726297,56.5693218758973,58.9128771406851,55.5671768853069,56.0930326951765,62.9342763012928,55.2363447599858,55.2872997352831,54.9725582987694,65.6538829123125,61.8221947313497,55.2265837103663,60.5220211790478,56.3655715357886,46.820941094145,68.0790610007652,58.6685500918215,57.2445690009912,63.3795462794298,70.8495092653012,52.4701661596202,64.8325927442262,65.2862113392595,51.3554810727298,55.6018729307388,59.9907024135372,50.5405057963155,54.1487551196403,60.4998102563533,59.9057283796873,63.5661916161243,53.2786796581555,52.3768252676826,49.2582371039954,50.9994777066893,51.0274967479092,57.4324562573128,51.6637435588224,57.1015698714407,57.8577974517038,57.2900847903012,61.5220511908126,65.0154165533631,54.956842978808,52.0362524554885,58.078371270525,61.9163456764712,67.5882281484174,70.6317998910316,52.8062342633172,66.8629472746081,63.3143422709767,52.8203522309668,59.7700458359636,62.579396224993,56.5737088558028,66.1228430944326,67.136439925836,72.5531731864151,85.5852721062195,54.6135961884209,52.3528512393582,72.0011813001767,72.7838287522594,64.6112385001703,55.1690848830617,53.534681785617,64.1287832836735,54.9772606868036,60.941755363761,60.7598164894302,59.7408272921474,67.590486222791,61.9899080140497,68.7154327942468,62.4567916906811,60.0680269761649,69.3384690994551,67.4068736957745,57.1503794561963,64.5916700496021,63.1525525826274,71.9839703037117,61.0502860006862,55.5803888046476,60.4876712384675,68.6558856414707,69.0105430924962,64.1394510903324,64.1294326880171,54.7633814253532,55.398354952765,61.9591828602402,60.6509124779379,60.0713038494437,59.5715851966646,65.2435846462049,58.8444799141489,59.2440095980905,70.8865849968315,79.8276207995586,64.2975346824516,64.2685651412058,56.6040045350937,64.1709191580717,53.7975015433149,56.8174986038112,87.472860691147,77.6765804083079,102.709357403431,75.0826436110625,65.9132905865098,54.6200398108883
